Time (s),Amplitude
0.0,0.028429735500445304
0.001000100010001,0.02299441910500547
0.002000200020002,0.11047294581177236
0.003000300030003,0.31202572475606716
0.004000400040004,0.28765092469546205
0.005000500050005001,0.44724454098806826
0.006000600060006,0.486150684607424
0.0070007000700070005,0.5083735554839509
0.008000800080008,0.595581133495526
0.009000900090009001,0.7087402497078195
0.010001000100010001,0.6831956749772639
0.011001100110011002,0.8027095333443109
0.012001200120012,0.8270779803368203
0.013001300130013,0.8630442135138439
0.014001400140014001,0.8773550229863503
0.015001500150015001,0.8751492295150742
0.016001600160016,0.8253079531335742
0.017001700170017002,1.0586892329744657
0.018001800180018002,0.9553434611626954
0.019001900190019003,1.0050384248368844
0.020002000200020003,1.0003454584858733
0.021002100210021003,0.9646034935090289
0.022002200220022004,0.9450084910400937
0.023002300230023004,0.9547216508051429
0.024002400240024,0.9751362304767373
0.025002500250025,0.8935375771806083
0.026002600260026,0.9058468175086766
0.027002700270027002,0.8303247110656881
0.028002800280028002,0.7952069657526508
0.029002900290029002,0.726116311811987
0.030003000300030003,0.6445373642858929
0.031003100310031003,0.5751683837376953
0.032003200320032,0.5605310357787837
0.033003300330033,0.6253590133112592
0.034003400340034004,0.41969701630542333
0.035003500350035,0.3727399780551592
0.036003600360036005,0.23933331698790003
0.037003700370037,0.15597394081722968
0.038003800380038005,0.06101058477068963
0.039003900390039,0.006460560062527508
0.040004000400040006,0.01630273399817088
0.041004100410041,-0.12896085698700221
0.04200420042004201,-0.20166573596775528
0.043004300430043,-0.22205113993233697
0.04400440044004401,-0.37416909071191395
0.045004500450045004,-0.3803341304320087
0.04600460046004601,-0.505554394209205
0.047004700470047005,-0.5201500209702619
0.048004800480048,-0.5791211366937095
0.049004900490049005,-0.6907484330431043
0.05000500050005,-0.7240174848248606
0.051005100510051006,-0.7943826421167516
0.052005200520052,-0.8968193779687204
0.05300530053005301,-0.8816377433214254
0.054005400540054004,-0.8449821694754474
0.05500550055005501,-0.9487750196645847
0.056005600560056004,-0.823536246574714
0.05700570057005701,-1.0494332302816727
0.058005800580058005,-0.9543846212181575
0.05900590059005901,-0.9986669159707401
0.060006000600060005,-0.9878798794020058
0.06100610061006101,-1.032821387812567
0.062006200620062006,-0.997161418609495
0.063006300630063,-0.9332256725128097
0.064006400640064,-0.9247081966483409
0.06500650065006501,-0.9260766004318944
0.066006600660066,-0.8569018727545282
0.067006700670067,-0.7525689021607114
0.06800680068006801,-0.7876252432018152
0.06900690069006901,-0.7581504387316487
0.07000700070007,-0.6445533228812295
0.071007100710071,-0.6095376044653915
0.07200720072007201,-0.5800885232982875
0.07300730073007301,-0.525949404557503
0.074007400740074,-0.4117057816823469
0.075007500750075,-0.30257226362912876
0.07600760076007601,-0.2613423798918932
0.07700770077007701,-0.12546848470751892
0.078007800780078,-0.04613335389149222
0.07900790079007901,0.034488095395367756
0.08000800080008001,-0.002119190092118168
0.081008100810081,-0.055110944743678086
0.082008200820082,0.09254067148100416
0.08300830083008301,0.07233406428469188
0.08400840084008401,-0.013543709145553542
0.085008500850085,0.16548123465954806
0.086008600860086,0.1317221764784434
0.08700870087008701,0.13712674282360576
0.08800880088008801,0.1635936289543517
0.089008900890089,0.31932112244932165
0.09000900090009001,0.3138236219686198
0.09100910091009101,0.39550210432765104
0.09200920092009202,0.4733072829525272
0.093009300930093,0.5390777590559922
0.09400940094009401,0.6002455673367564
0.09500950095009501,0.6787909271693912
0.096009600960096,0.7206697430487292
0.09700970097009701,0.8816723204342732
0.09800980098009801,0.8141081781529032
0.09900990099009901,0.8867403359044715
0.1000100010001,0.9359271650138195
0.10101010101010101,0.974135512534758
0.10201020102010201,0.9965617080568969
0.10301030103010302,1.022512177326155
0.104010401040104,1.011683570648869
0.10501050105010501,1.0564249733140192
0.10601060106010601,0.8997142623870779
0.10701070107010702,0.9351783952742667
0.10801080108010801,0.896431540475879
0.10901090109010901,0.8835018199677476
0.11001100110011001,0.8747814567251152
0.11101110111011102,0.857747316308395
0.11201120112011201,0.8298757373859996
0.11301130113011301,0.7459638169570878
0.11401140114011402,0.739376414571169
0.115011501150115,0.6101975492866099
0.11601160116011601,0.5893859867883412
0.11701170117011701,0.5001975098889605
0.11801180118011802,0.4244316201646516
0.11901190119011901,0.44602180872320435
0.12001200120012001,0.3955974784304666
0.12101210121012101,0.16852132494978422
0.12201220122012202,0.25845929810501544
0.12301230123012301,0.12339746594662834
0.12401240124012401,0.11371579548726699
0.125012501250125,0.11897443123201269
0.126012601260126,-0.06312949131304008
0.127012701270127,0.04066776543283093
0.128012801280128,-0.049649340222562205
0.12901290129012902,0.04722468464038003
0.13001300130013002,-0.045681938840335654
0.13101310131013102,-0.05609660335734771
0.132013201320132,-0.025172489669051418
0.133013301330133,-0.03609040624390733
0.134013401340134,0.05743082955900172
0.135013501350135,0.17770519034167073
0.13601360136013602,0.18670687375571404
0.13701370137013702,0.2628015154512028
0.13801380138013802,0.24647370911035452
0.13901390139013903,0.2846140904445902
0.14001400140014,0.3799076317888002
0.141014101410141,0.30699862576861586
0.142014201420142,0.5002557452229458
0.14301430143014301,0.48226408141052285
0.14401440144014402,0.5900848667409382
0.14501450145014502,0.6665165571785812
0.14601460146014603,0.7218592081959565
0.147014701470147,0.6540569163184704
0.148014801480148,0.8287618869911918
0.149014901490149,0.9022157643690002
0.15001500150015,0.9312127103525162
0.15101510151015102,0.9718381072956934
0.15201520152015202,0.8482254521212367
0.15301530153015303,1.0431702737831634
0.15401540154015403,1.0386190186834288
0.155015501550155,0.9506020566581417
0.156015601560156,0.9451902864439692
0.157015701570157,0.9851869627214394
0.15801580158015802,0.967399988047754
0.15901590159015902,0.9274552659313423
0.16001600160016002,0.8613064721711499
0.16101610161016103,0.874843288187828
0.162016201620162,0.8185926919675033
0.163016301630163,0.6317993503141079
0.164016401640164,0.7594151622680646
0.16501650165016502,0.6838080859850866
0.16601660166016602,0.5765180672525665
0.16701670167016702,0.4792213907412214
0.16801680168016803,0.39581129074998433
0.16901690169016903,0.2704141998502519
0.17001700170017,0.24537243980100937
0.171017101710171,0.2221636667544938
0.172017201720172,0.16440038571072607
0.17301730173017302,0.07485331102883083
0.17401740174017402,0.09734078020336051
0.17501750175017503,0.12040143326588042
0.17601760176017603,0.1275023024705756
0.177017701770177,-0.06185989855151908
0.178017801780178,-0.04308032400991314
0.179017901790179,0.06136287503232593
0.18001800180018002,-0.03613849797981885
0.18101810181018102,-0.014001530031502757
0.18201820182018202,0.13278009002951585
0.18301830183018303,0.09875492589708647
0.18401840184018403,0.1597562306095516
0.185018501850185,0.17847869101087993
0.186018601860186,0.23932046056090528
0.18701870187018702,0.3020029366663007
0.18801880188018802,0.29945713041908434
0.18901890189018902,0.30831036250719207
0.19001900190019003,0.34411429199654087
0.19101910191019103,0.4159451546897626
0.192019201920192,0.4147293834253138
0.193019301930193,0.5250937204384288
0.19401940194019401,0.5927809579126462
0.19501950195019502,0.6132262321150171
0.19601960196019602,0.5676622965052285
0.19701970197019703,0.5626315425790672
0.19801980198019803,0.6225250489110503
0.19901990199019903,0.7262276653458234
0.2000200020002,0.7609293804931909
0.201020102010201,0.6992420151817178
0.20202020202020202,0.6061265617260272
0.20302030203020302,0.7756304913651866
0.20402040204020402,0.7295466913604934
0.20502050205020503,0.8580596588487172
0.20602060206020603,0.8899427457353792
0.20702070207020704,0.8221922538729757
0.208020802080208,0.8174592827364017
0.20902090209020902,0.9462136936728582
0.21002100210021002,1.0041365539799232
0.21102110211021102,0.9294989076319765
0.21202120212021203,0.9906269123730402
0.21302130213021303,1.0010967718700916
0.21402140214021403,0.9541038279728045
0.215021502150215,0.8563588449335366
0.21602160216021601,0.8606839388280365
0.21702170217021702,0.911150546705501
0.21802180218021802,0.9921592336908268
0.21902190219021903,0.9584574553829426
0.22002200220022003,1.0410331804495725
0.22102210221022103,0.9060391829886816
0.22202220222022204,0.9286519827546678
0.223022302230223,0.9358122516925926
0.22402240224022402,1.027469595780237
0.22502250225022502,0.9394821801951255
0.22602260226022602,0.9066999248605311
0.22702270227022703,1.0545673622297353
0.22802280228022803,0.8915780859509255
0.22902290229022904,0.9666109165503473
0.23002300230023,0.8901889980039313
0.23102310231023102,0.8903149634091195
0.23202320232023202,0.8810466917862632
0.23302330233023302,0.8638865745545934
0.23402340234023403,0.8518185545152904
0.23502350235023503,0.8577613713763619
0.23602360236023603,0.8479290551408306
0.23702370237023704,0.7561902199976076
0.23802380238023801,0.7483719600464153
0.23902390239023902,0.636350096033905
0.24002400240024002,0.6550727701397483
0.24102410241024103,0.6584445855661286
0.24202420242024203,0.6067097505422009
0.24302430243024303,0.4247777366260086
0.24402440244024404,0.5463294205968297
0.245024502450245,0.5479270734063152
0.24602460246024602,0.536600100549121
0.24702470247024702,0.43268877719341
0.24802480248024802,0.3710828676018596
0.24902490249024903,0.35216858313135324
0.25002500250025,0.4194819791628052
0.251025102510251,0.1956286676894305
0.252025202520252,0.3591756550934275
0.253025302530253,0.1885122624545822
0.254025402540254,0.26926774598023767
0.255025502550255,0.1525698293419947
0.256025602560256,0.20102356335094235
0.25702570257025703,0.034251549798606354
0.25802580258025803,0.024453342173394226
0.25902590259025904,0.07266553668988653
0.26002600260026004,-0.06352020040892734
0.26102610261026105,-0.10815576848361898
0.26202620262026205,-0.07853931750709132
0.26302630263026305,-0.06910701992751841
0.264026402640264,-0.14178155969174105
0.265026502650265,-0.22676539673203167
0.266026602660266,-0.23401574507914868
0.267026702670267,-0.32487221741353955
0.268026802680268,-0.256671653827604
0.269026902690269,-0.2889632182044311
0.27002700270027,-0.417495986274148
0.27102710271027103,-0.4343946179461922
0.27202720272027203,-0.4340433823471619
0.27302730273027304,-0.5535730690321411
0.27402740274027404,-0.5455883982841317
0.27502750275027504,-0.5554393611688946
0.27602760276027605,-0.5026898352920227
0.27702770277027705,-0.7675446844995726
0.27802780278027805,-0.6333145433896898
0.279027902790279,-0.7260697071374377
0.28002800280028,-0.6568101411643558
0.281028102810281,-0.8296903131804487
0.282028202820282,-0.7877353534848056
0.283028302830283,-0.7602923037555473
0.284028402840284,-0.8615255426757317
0.285028502850285,-0.9236225534588037
0.28602860286028603,-0.8769971985722449
0.28702870287028703,-0.8227181729791923
0.28802880288028804,-0.899586855340275
0.28902890289028904,-0.9293019529468658
0.29002900290029004,-0.9286780099274891
0.29102910291029105,-0.9549315970060172
0.29202920292029205,-0.9011362674873712
0.29302930293029306,-1.0190271556481563
0.294029402940294,-1.0319688372954978
0.295029502950295,-0.9634442112756768
0.296029602960296,-1.0893273274446365
0.297029702970297,-0.9979167282612835
0.298029802980298,-0.9315956278923303
0.299029902990299,-1.0166312528210213
0.3000300030003,-1.0257341541689884
0.30103010301030103,-0.9720281168867055
0.30203020302030203,-1.0043360505126206
0.30303030303030304,-0.9823978685822956
0.30403040304030404,-0.9785507695893978
0.30503050305030505,-0.9422890064416403
0.30603060306030605,-0.9896993329780627
0.30703070307030705,-0.9077499820709027
0.30803080308030806,-0.9152864582708263
0.309030903090309,-0.9661331750770993
0.31003100310031,-0.9092401850811306
0.311031103110311,-0.8612747947456112
0.312031203120312,-1.032970950712682
0.313031303130313,-0.867395167306519
0.314031403140314,-0.9018362809420126
0.31503150315031503,-0.8517199210849294
0.31603160316031603,-0.7728236919400404
0.31703170317031704,-0.7529021964296154
0.31803180318031804,-0.7560739221832031
0.31903190319031904,-0.8302964549417049
0.32003200320032005,-0.6207944068989072
0.32103210321032105,-0.6373274776783356
0.32203220322032206,-0.6412223460110327
0.32303230323032306,-0.5279978678075767
0.324032403240324,-0.511827439927363
0.325032503250325,-0.4857184052012709
0.326032603260326,-0.4198487594733848
0.327032703270327,-0.537029215621164
0.328032803280328,-0.43397057665896976
0.329032903290329,-0.3014488836639432
0.33003300330033003,-0.3783623739342829
0.33103310331033103,-0.2929050585189635
0.33203320332033204,-0.2588759323164645
0.33303330333033304,-0.2038398150596002
0.33403340334033405,-0.22184838173017268
0.33503350335033505,-0.050132970505209734
0.33603360336033605,-0.17263516550454538
0.33703370337033706,-0.11339551792936653
0.33803380338033806,-0.044565275792242155
0.339033903390339,-0.03252709636206848
0.34003400340034,-0.00918742964313524
0.341034103410341,0.036483224187604246
0.342034203420342,0.19555174934174407
0.343034303430343,0.22843356432043666
0.344034403440344,0.2867416108890225
0.34503450345034503,0.40185429613889617
0.34603460346034604,0.45773783595220396
0.34703470347034704,0.5215808437130898
0.34803480348034804,0.5258238405344002
0.34903490349034905,0.6788359174533956
0.35003500350035005,0.6057054792654905
0.35103510351035105,0.7772013335659684
0.35203520352035206,0.7692960267253034
0.35303530353035306,0.8732427527507594
0.354035403540354,0.9473383228633951
0.355035503550355,0.9224476678749841
0.356035603560356,0.8762522958671688
0.357035703570357,1.0076537430849741
0.358035803580358,0.9997066332837864
0.35903590359035903,0.9460005968499561
0.36003600360036003,0.9839618318934505
0.36103610361036104,0.9170157990951515
0.36203620362036204,1.0095945927793908
0.36303630363036304,0.8919953791883528
0.36403640364036405,0.9936406483157416
0.36503650365036505,0.8900071254851945
0.36603660366036606,0.8317405188164831
0.36703670367036706,0.8582365245579776
0.36803680368036806,0.7407779382304089
0.369036903690369,0.7275871619616655
0.37003700370037,0.672546398523679
0.371037103710371,0.6784766455159342
0.372037203720372,0.54522138385912
0.373037303730373,0.5584163382204784
0.37403740374037403,0.37925418703911196
0.37503750375037503,0.38363417734677063
0.37603760376037604,0.2864900861898328
0.37703770377037704,0.26176267555357174
0.37803780378037805,0.059383415615807164
0.37903790379037905,0.03801954215275015
0.38003800380038005,-0.0021712169212081966
0.38103810381038106,-0.05327595388393824
0.38203820382038206,-0.26649635645030195
0.38303830383038306,-0.32274632095332706
0.384038403840384,-0.28091123981642796
0.385038503850385,-0.42348699906797876
0.386038603860386,-0.4734208251764965
0.387038703870387,-0.5916647566672134
0.38803880388038803,-0.5807475053414608
0.38903890389038903,-0.5847792731864581
0.39003900390039004,-0.7623544491222329
0.39103910391039104,-0.883219986855929
0.39203920392039204,-0.9321387002745566
0.39303930393039305,-0.8713348423742864
0.39403940394039405,-0.8383518549163498
0.39503950395039505,-0.9923163724829326
0.39603960396039606,-0.9695455818370671
0.39703970397039706,-1.0137877751448323
0.39803980398039807,-1.0017349785746625
0.39903990399039907,-1.0440042506045561
0.4000400040004,-0.9834843281185782
0.401040104010401,-0.8879413789347875
0.402040204020402,-0.9648791537105196
0.40304030403040303,-0.9797009976750695
0.40404040404040403,-0.8761398575809807
0.40504050405040504,-0.8812734779342181
0.40604060406040604,-0.9513658148444368
0.40704070407040704,-0.8268071801612381
0.40804080408040805,-0.8061442377473816
0.40904090409040905,-0.7565811683378741
0.41004100410041006,-0.5983448337303497
0.41104110411041106,-0.5864896547852978
0.41204120412041206,-0.49090201583882637
0.41304130413041307,-0.4133228953817693
0.41404140414041407,-0.39702448991367945
0.415041504150415,-0.3292771531837703
0.416041604160416,-0.21224769116518782
0.417041704170417,-0.04069356591779569
0.41804180418041803,-0.10670700206221814
0.41904190419041903,-0.03277998778407711
0.42004200420042004,0.051819867883709195
0.42104210421042104,0.014911292757896863
0.42204220422042205,-0.0770626074247646
0.42304230423042305,-0.03374956151851453
0.42404240424042405,0.10658378945359341
0.42504250425042506,0.07893266218141046
0.42604260426042606,0.23402639585606155
0.42704270427042706,0.13811984431178928
0.42804280428042807,0.313093629472978
0.4290429042904291,0.2587949049101539
0.43004300430043,0.38333316634751946
0.431043104310431,0.508960900055118
0.43204320432043203,0.4520625336655071
0.43304330433043303,0.4678970962628546
0.43404340434043404,0.5647801899869908
0.43504350435043504,0.5822910554162315
0.43604360436043604,0.7456374557035831
0.43704370437043705,0.7220179074537699
0.43804380438043805,0.8465791339462877
0.43904390439043905,0.8699757867080212
0.44004400440044006,0.8570604246845285
0.44104410441044106,0.9139337586372507
0.44204420442044207,0.9360763724711855
0.44304430443044307,0.971596549708307
0.4440444044404441,0.9772907993824292
0.445044504450445,1.022035893356056
0.446044604460446,0.9492340534550399
0.44704470447044703,1.0570990098610893
0.44804480448044803,0.9141816318204753
0.44904490449044904,0.9784417147749738
0.45004500450045004,0.9137303227158724
0.45104510451045104,0.7659147339742616
0.45204520452045205,0.8109899450831067
0.45304530453045305,0.7234766373178961
0.45404540454045406,0.7664437729888836
0.45504550455045506,0.6872957754988742
0.45604560456045606,0.4363244039909539
0.45704570457045707,0.5726713397368876
0.45804580458045807,0.42020168991652457
0.4590459045904591,0.3393102777121084
0.46004600460046,0.29812679937083214
0.461046104610461,0.30797058365180213
0.46204620462046203,0.17456552703739353
0.46304630463046303,0.20195319498716033
0.46404640464046404,0.11180435297918453
0.46504650465046504,0.06628279990815918
0.46604660466046605,0.07887484831628813
0.46704670467046705,0.05045785496496825
0.46804680468046805,0.005269767657128386
0.46904690469046906,0.007887112887783036
0.47004700470047006,-0.05348063015042858
0.47104710471047107,0.010588009909871656
0.47204720472047207,-0.005808348984670836
0.4730473047304731,-0.015877758722749408
0.4740474047404741,0.023213066094797244
0.475047504750475,0.1503106137416167
0.47604760476047603,0.1475175242947647
0.47704770477047703,0.18239448225103422
0.47804780478047804,0.30250568689504514
0.47904790479047904,0.3674304221224103
0.48004800480048004,0.46368602717931584
0.48104810481048105,0.4476331119569249
0.48204820482048205,0.5379489958199009
0.48304830483048306,0.5572989727379446
0.48404840484048406,0.6623888451897688
0.48504850485048506,0.6907342127432498
0.48604860486048607,0.7048242443865083
0.48704870487048707,0.8620873233277709
0.4880488048804881,0.8464174135244364
0.4890489048904891,0.9107320029791598
0.49004900490049,0.8855976350860668
0.49104910491049103,0.9799174593464107
0.49204920492049203,1.0191692669730879
0.49304930493049304,0.9694430703779942
0.49404940494049404,0.9743525598059225
0.49504950495049505,0.8898329099215755
0.49604960496049605,0.9510719797522366
0.49704970497049705,0.9943422903902999
0.49804980498049806,0.914047660988037
0.49904990499049906,0.8562003441647763
0.5000500050005,0.8921476678088481
0.5010501050105011,0.8799746729759494
0.502050205020502,0.7450868001901937
0.5030503050305031,0.6649519720682973
0.504050405040504,0.6188259365600717
0.5050505050505051,0.7209551410478157
0.506050605060506,0.553721109611798
0.5070507050705071,0.5175596089395329
0.508050805080508,0.4939886600579615
0.5090509050905091,0.38476353759554116
0.51005100510051,0.4419453733129962
0.5110511051105111,0.20836652161628672
0.512051205120512,0.16782586393225382
0.513051305130513,0.10296142300880541
0.5140514051405141,0.06008979889122026
0.515051505150515,0.09666824250349229
0.5160516051605161,0.032303446134549336
0.517051705170517,-0.02973119078440306
0.5180518051805181,-0.03160405379391939
0.519051905190519,0.033013517589896346
0.5200520052005201,0.011279286923414381
0.521052105210521,0.028802088859858264
0.5220522052205221,0.10811020512292248
0.523052305230523,0.14712195393240632
0.5240524052405241,0.1208774728520601
0.525052505250525,0.21126634015973839
0.5260526052605261,0.19059028160408575
0.527052705270527,0.19590386378849822
0.528052805280528,0.23275929523388755
0.5290529052905291,0.4054699333521211
0.53005300530053,0.393730467279094
0.5310531053105311,0.43436156532524284
0.532053205320532,0.4704221261263204
0.5330533053305331,0.5484212227701919
0.534053405340534,0.5368871002788387
0.5350535053505351,0.5987128778043387
0.536053605360536,0.6618002992671231
0.5370537053705371,0.6351475654273362
0.538053805380538,0.6861821614489437
0.5390539053905391,0.6293706722409675
0.54005400540054,0.6927720440016858
0.5410541054105411,0.6992235953339418
0.5420542054205421,0.7585536064951786
0.543054305430543,0.8012164717949948
0.5440544054405441,0.8162351065080184
0.545054505450545,0.8633547893288513
0.5460546054605461,0.8161621509588906
0.547054705470547,0.8740970940577262
0.5480548054805481,0.8943158685335243
0.549054905490549,0.9128492896246401
0.5500550055005501,0.9380224761253976
0.551055105510551,0.9274629519809137
0.5520552055205521,0.9424318711541132
0.553055305530553,0.9339617368035
0.5540554055405541,0.8562638590202429
0.555055505550555,1.0523708593022938
0.5560556055605561,0.9206218708770174
0.5570557055705571,0.9079251729175478
0.558055805580558,1.0540095996398304
0.5590559055905591,1.0289630986497402
0.56005600560056,1.0258455197919807
0.5610561056105611,0.9754636940528393
0.562056205620562,0.9660467622762022
0.5630563056305631,0.9594531772153402
0.564056405640564,0.99322126226131
0.5650565056505651,1.0189524403244596
0.566056605660566,0.9519925141536962
0.5670567056705671,0.959460965555726
0.568056805680568,1.0017346287600837
0.5690569056905691,0.9042573167341361
0.57005700570057,0.9869876168487335
0.5710571057105711,1.035358603615368
0.5720572057205721,0.8630429388427776
0.573057305730573,0.8036900421612675
0.5740574057405741,0.8359492567471999
0.575057505750575,0.9427745417216729
0.5760576057605761,0.6813073669930924
0.577057705770577,0.7223269494791318
0.5780578057805781,0.7318787957221485
0.579057905790579,0.673084117892107
0.5800580058005801,0.7486215903091897
0.581058105810581,0.6800491011513878
0.5820582058205821,0.6307894464059184
0.583058305830583,0.6512236672248113
0.5840584058405841,0.5337964853883735
0.585058505850585,0.5419836117095832
0.5860586058605861,0.569214211898948
0.5870587058705871,0.41646739829595725
0.588058805880588,0.4401407406916754
0.5890589058905891,0.4623508880569473
0.59005900590059,0.3903705929593888
0.5910591059105911,0.3136699286973344
0.592059205920592,0.3230598220905357
0.5930593059305931,0.27675733659266816
0.594059405940594,0.13406965896603007
0.5950595059505951,0.19722004358948556
0.596059605960596,0.1056338842042005
0.5970597059705971,0.13802870058641792
0.598059805980598,0.04173873417614772
0.5990599059905991,0.004213613769997038
0.6000600060006,-0.016242244416331514
0.6010601060106011,-0.026323152821600658
0.6020602060206021,-0.14931347730882538
0.603060306030603,-0.13778778340120765
0.6040604060406041,-0.1766022016045955
0.605060506050605,-0.2654120416317546
0.6060606060606061,-0.2446520859027547
0.607060706070607,-0.327197472025262
0.6080608060806081,-0.26185922840311143
0.609060906090609,-0.41337564047953373
0.6100610061006101,-0.4563390974514381
0.611061106110611,-0.4304801961154289
0.6120612061206121,-0.4831902395166445
0.613061306130613,-0.49133506423826956
0.6140614061406141,-0.5641834431521512
0.6150615061506151,-0.5414090995267439
0.6160616061606161,-0.6723957682982369
0.6170617061706171,-0.6113108792660107
0.618061806180618,-0.714412117684134
0.6190619061906191,-0.702810310205237
0.62006200620062,-0.7694548358762788
0.6210621062106211,-0.6642536011893067
0.622062206220622,-0.8932016638479121
0.6230623062306231,-0.8284557131516508
0.624062406240624,-0.8388364911854759
0.6250625062506251,-0.8236106848651492
0.626062606260626,-0.9275031775869553
0.6270627062706271,-0.8426340271068449
0.628062806280628,-0.912971576681903
0.6290629062906291,-0.8665707575315453
0.6300630063006301,-0.8829768065415528
0.6310631063106311,-0.8661055942472201
0.6320632063206321,-0.9117970372873911
0.633063306330633,-0.9262409572631516
0.6340634063406341,-0.9584280590484074
0.635063506350635,-1.0427074255437088
0.6360636063606361,-1.0226011231057175
0.637063706370637,-1.0009824237692382
0.6380638063806381,-1.008582985882449
0.639063906390639,-1.0549392590254056
0.6400640064006401,-0.9871753877071063
0.641064106410641,-0.8621278650389588
0.6420642064206421,-1.0152999123670972
0.643064306430643,-1.0007455795334086
0.6440644064406441,-0.9989840602775766
0.6450645064506451,-0.986223838158919
0.6460646064606461,-0.9349454824356965
0.6470647064706471,-1.0483277775869766
0.648064806480648,-0.9610721696180861
0.6490649064906491,-0.8956947045134137
0.65006500650065,-0.8839438894489846
0.6510651065106511,-0.8858570281056787
0.652065206520652,-0.8733646274430445
0.6530653065306531,-0.8683531941178945
0.654065406540654,-0.8945791038414912
0.6550655065506551,-0.8048026669863323
0.656065606560656,-0.8037230327592341
0.6570657065706571,-0.7709607508883465
0.658065806580658,-0.7959405059334898
0.6590659065906591,-0.6939530557552174
0.6600660066006601,-0.6287951660148614
0.6610661066106611,-0.6693634453877518
0.6620662066206621,-0.6206268282810046
0.663066306630663,-0.6094705040117254
0.6640664066406641,-0.4891249931832727
0.665066506650665,-0.5658181009824301
0.6660666066606661,-0.6192209805019757
0.667066706670667,-0.4378786017249428
0.6680668066806681,-0.41078390340295073
0.669066906690669,-0.45770920077608257
0.6700670067006701,-0.31440206542552507
0.671067106710671,-0.3640045780397134
0.6720672067206721,-0.2727344364348458
0.673067306730673,-0.20478314262993857
0.6740674067406741,-0.15816734915574993
0.6750675067506751,-0.23066264783340584
0.6760676067606761,-0.09013466268101784
0.6770677067706771,-0.10937158686373213
0.678067806780678,-0.1476574111330716
0.6790679067906791,-0.09396690998670511
0.68006800680068,-0.01245269688283592
0.6810681068106811,0.08139533097561875
0.682068206820682,0.0428807273802566
0.6830683068306831,0.22466518623371343
0.684068406840684,0.30097760592572803
0.6850685068506851,0.37995675318162814
0.686068606860686,0.45942111106161365
0.6870687068706871,0.5331281591489702
0.688068806880688,0.6015969695494079
0.6890689068906891,0.6341778855504001
0.6900690069006901,0.7192366138108505
0.6910691069106911,0.764979561516238
0.6920692069206921,0.8373986478086101
0.693069306930693,0.9355752854811821
0.6940694069406941,0.8149507739848392
0.695069506950695,0.8928900034102225
0.6960696069606961,1.0455126426736934
0.697069706970697,0.9677442023268538
0.6980698069806981,1.0292023822004042
0.699069906990699,0.9648695267872978
0.7000700070007001,1.0258370267465207
0.701070107010701,1.0391763891283787
0.7020702070207021,0.9505049575847149
0.7030703070307031,0.8605701591454155
0.7040704070407041,0.7945952197751613
0.7050705070507051,0.9453535600329853
0.7060706070607061,0.9456058591441449
0.7070707070707071,0.8417798237334961
0.708070807080708,0.8080052357468821
0.7090709070907091,0.7828218584174207
0.71007100710071,0.721390163112081
0.7110711071107111,0.6754938536212978
0.712071207120712,0.5051052700191251
0.7130713071307131,0.5720500941845025
0.714071407140714,0.39701894792436293
0.7150715071507151,0.3497207938663855
0.716071607160716,0.28012592649541207
0.7170717071707171,0.18143975857015132
0.7180718071807181,0.13388030802454787
0.7190719071907191,0.12053024807793333
0.7200720072007201,0.06710853054633192
0.7210721072107211,-0.18926843747773653
0.7220722072207221,-0.27633106468769475
0.723072307230723,-0.20073757511575155
0.7240724072407241,-0.36896437602417975
0.725072507250725,-0.4402329533504268
0.7260726072607261,-0.4906578533130544
0.727072707270727,-0.5919601420111571
0.7280728072807281,-0.5934936863854681
0.729072907290729,-0.717538216725082
0.7300730073007301,-0.7897356207384227
0.731073107310731,-0.7711740817757033
0.7320732073207321,-0.9244915651933018
0.7330733073307331,-0.8140509653867644
0.7340734073407341,-0.9062782625557402
0.7350735073507351,-0.8294532582220864
0.7360736073607361,-0.9655573029851588
0.7370737073707371,-0.9383792429775157
0.738073807380738,-1.0015699287862785
0.7390739073907391,-1.0959450168175016
0.74007400740074,-0.988720913607455
0.7410741074107411,-0.973243906660714
0.742074207420742,-0.876679695558672
0.7430743074307431,-0.9188403891347808
0.744074407440744,-1.0025221723741624
0.7450745074507451,-0.9067117336590743
0.746074607460746,-0.9061695116272281
0.7470747074707471,-0.9366414862448349
0.7480748074807481,-0.8078647948497408
0.7490749074907491,-0.7001706050875655
0.7500750075007501,-0.7481583014165815
0.7510751075107511,-0.5158049006875214
0.7520752075207521,-0.6595403029232308
0.753075307530753,-0.44596624793619527
0.7540754075407541,-0.46790727307803354
0.755075507550755,-0.3936256352765449
0.7560756075607561,-0.17226048632138585
0.757075707570757,-0.0854032255565935
0.7580758075807581,-0.11094047393937181
0.759075907590759,-0.021657777122817388
0.7600760076007601,-0.011645989788792506
0.761076107610761,0.014090631764536534
0.7620762076207621,-0.020258322044180176
0.7630763076307631,0.030553761270635207
0.7640764076407641,0.06507095556136079
0.7650765076507651,0.14871908021662608
0.7660766076607661,0.281861327772454
0.7670767076707671,0.1309256005994555
0.768076807680768,0.27249919405615985
0.7690769076907691,0.3577805399390419
0.77007700770077,0.2906551251327376
0.7710771077107711,0.372192923180167
0.772077207720772,0.4807243478603039
0.7730773077307731,0.5501331813764032
0.774077407740774,0.5694413906953534
0.7750775077507751,0.583451987573603
0.7760776077607761,0.6785466757283735
0.7770777077707771,0.828154160336229
0.7780778077807781,0.8657665375979325
0.7790779077907791,0.8715148769884459
0.7800780078007801,0.9044862868454389
0.7810781078107811,0.8861194257738629
0.7820782078207821,1.0104205558968495
0.7830783078307831,1.0272537234803654
0.7840784078407841,1.0713169659006245
0.785078507850785,1.0413700467626497
0.7860786078607861,0.914429466680219
0.787078707870787,1.0181889317291197
0.7880788078807881,0.9078572371971865
0.789078907890789,0.8709161276827881
0.7900790079007901,1.023805083625878
0.7910791079107911,0.931832032925626
0.7920792079207921,0.7551852017555659
0.7930793079307931,0.740740748485752
0.7940794079407941,0.5997742426084973
0.7950795079507951,0.6014739301311117
0.7960796079607961,0.5388445492903325
0.7970797079707971,0.47712518898097717
0.7980798079807981,0.5088578396627742
0.7990799079907991,0.4295230776148074
0.8000800080008,0.4057492803698206
0.8010801080108011,0.2696742560590734
0.802080208020802,0.24223347350234392
0.8030803080308031,0.08132604237117562
0.804080408040804,0.10407493728649506
0.8050805080508051,0.029368393632683662
0.8060806080608061,0.012834916506018146
0.8070807080708071,-0.018560121159388786
0.8080808080808081,-0.04873674261144678
0.8090809080908091,-0.010316084384106493
0.8100810081008101,0.004203233246059795
0.8110811081108111,-0.045165783021447733
0.8120812081208121,-0.04652535595789312
0.8130813081308131,-0.07370166903316797
0.8140814081408141,0.02742750651542015
0.815081508150815,0.1564841474483722
0.8160816081608161,0.13514299306382938
0.817081708170817,0.2855109865441665
0.8180818081808181,0.16891050750125383
0.819081908190819,0.31921496061323895
0.8200820082008201,0.2991681154887673
0.8210821082108211,0.3415040221989906
0.8220822082208221,0.5054848694417939
0.8230823082308231,0.5714524715522286
0.8240824082408241,0.6770830383180119
0.8250825082508251,0.6945768005303095
0.8260826082608261,0.8511354658446969
0.8270827082708271,0.8907618560352487
0.8280828082808281,0.8435492165995688
0.8290829082908291,0.8324451554146659
0.83008300830083,0.9083838504338243
0.8310831083108311,0.9250840395278008
0.832083208320832,1.0031001784925653
0.8330833083308331,0.9397574204410244
0.834083408340834,0.9773998224752499
0.8350835083508351,1.0262312818455943
0.8360836083608361,0.9869182983578724
0.8370837083708371,0.9784659741033382
0.8380838083808381,0.8904668087265435
0.8390839083908391,0.9024042729745869
0.8400840084008401,0.8673991471514858
0.8410841084108411,0.8532061672141307
0.8420842084208421,0.8520236461657684
0.8430843084308431,0.7627882039964632
0.8440844084408441,0.6124829912308105
0.845084508450845,0.7074351831267423
0.8460846084608461,0.4990204705485781
0.847084708470847,0.48846537856514527
0.8480848084808481,0.43099423304743695
0.849084908490849,0.37102838159915436
0.8500850085008501,0.1917015805317553
0.8510851085108511,0.2702863151052258
0.8520852085208521,0.20303348305907698
0.8530853085308531,0.18835386247002828
0.8540854085408541,0.07013060391530579
0.8550855085508551,0.039844900421047116
0.8560856085608561,-0.044623184621627746
0.8570857085708571,-0.0011244823582112623
0.8580858085808581,-0.06199494361934649
0.8590859085908591,0.0472956961334253
0.86008600860086,0.10017652939688562
0.8610861086108611,0.03604769413304655
0.862086208620862,0.037544185203542815
0.8630863086308631,0.18910368976433237
0.8640864086408641,0.14003521903044888
0.8650865086508651,0.21222345115731966
0.8660866086608661,0.24794742199637432
0.8670867086708671,0.2367694381610859
0.8680868086808681,0.35338740036312827
0.8690869086908691,0.32493949992982246
0.8700870087008701,0.4565700580912402
0.8710871087108711,0.4446023881108794
0.8720872087208721,0.5436807440092704
0.8730873087308731,0.3961427876060748
0.8740874087408741,0.5291110366356643
0.875087508750875,0.5520747999442279
0.8760876087608761,0.5112789364908461
0.877087708770877,0.6445621128046527
0.8780878087808781,0.673977788361489
0.8790879087908791,0.6398164025419453
0.8800880088008801,0.7549485981465872
0.8810881088108811,0.7290529010167949
0.8820882088208821,0.7416738860378727
0.8830883088308831,0.8155085092259837
0.8840884088408841,0.7959230597764997
0.8850885088508851,0.9129905176334328
0.8860886088608861,0.8411912348127167
0.8870887088708871,0.9558353865707109
0.8880888088808881,0.8939059559195396
0.8890889088908891,0.9297377215068161
0.89008900890089,0.9801589963236146
0.8910891089108911,0.9078342128591047
0.892089208920892,0.8998045707689235
0.8930893089308931,0.8816591033379436
0.8940894089408941,1.0279771679544683
0.8950895089508951,1.0017791273137429
0.8960896089608961,0.9727314803047638
0.8970897089708971,0.8851742927829571
0.8980898089808981,1.0110393503476167
0.8990899089908991,0.9501452050202797
0.9000900090009001,0.9644304136577873
0.9010901090109011,0.9681836043402849
0.9020902090209021,1.0206609258854726
0.9030903090309031,0.9062604846196568
0.9040904090409041,0.9762234463569323
0.905090509050905,1.0115811268324892
0.9060906090609061,0.9779500553205682
0.907090709070907,0.9858456455037774
0.9080908090809081,0.941756570400785
0.9090909090909091,0.9536830070909388
0.9100910091009101,0.9172780409262928
0.9110911091109111,0.8216135256718254
0.9120912091209121,0.9880804722522115
0.9130913091309131,0.8589739084788399
0.9140914091409141,0.8806487775774996
0.9150915091509151,0.8015505276804858
0.9160916091609161,0.8071056157951344
0.9170917091709171,0.8217420653708454
0.9180918091809182,0.668006540120655
0.9190919091909191,0.7230057632212458
0.92009200920092,0.6793155455380355
0.9210921092109211,0.7719500817988056
0.922092209220922,0.6068501678566762
0.9230923092309231,0.5799445534512171
0.9240924092409241,0.61519849347273
0.9250925092509251,0.5345921721597774
0.9260926092609261,0.46781250357477655
0.9270927092709271,0.4448390001553409
0.9280928092809281,0.4104170931909606
0.9290929092909291,0.35870927637476374
0.9300930093009301,0.2944998876654196
0.9310931093109311,0.38838024563834567
0.9320932093209321,0.3013582820899396
0.9330933093309332,0.19629089523231688
0.9340934093409341,0.20824611610419905
0.935093509350935,0.15271104749981296
0.9360936093609361,0.09358753875097917
0.9370937093709371,0.23320186475382232
0.9380938093809381,0.0632473051051773
0.9390939093909391,0.07621145640075679
0.9400940094009401,-0.007975024554967458
0.9410941094109411,-0.022882287696974778
0.9420942094209421,-0.1057471187996187
0.9430943094309431,-0.06114964676509527
0.9440944094409441,-0.22830317744967374
0.9450945094509451,-0.2687430660300712
0.9460946094609461,-0.24550616786141605
0.9470947094709471,-0.36185671598134933
0.9480948094809482,-0.3852865786950028
0.9490949094909491,-0.36131967254638986
0.95009500950095,-0.38124274137925895
0.9510951095109511,-0.40901036724801065
0.9520952095209521,-0.4624378609465199
0.9530953095309531,-0.4677748303882255
0.9540954095409541,-0.4992301229051888
0.9550955095509551,-0.575243448162422
0.9560956095609561,-0.6125480573422108
0.9570957095709571,-0.6369570502956884
0.9580958095809581,-0.7307435227029426
0.9590959095909591,-0.728341824782214
0.9600960096009601,-0.6815023008516204
0.9610961096109611,-0.7888896593111385
0.9620962096209621,-0.782327983380313
0.9630963096309632,-0.8474194384602055
0.9640964096409641,-0.8178332255587675
0.965096509650965,-0.8000344488248627
0.9660966096609661,-0.7278119886270863
0.9670967096709671,-0.8757247535363181
0.9680968096809681,-0.83810082626079
0.9690969096909691,-0.8733538937027683
0.9700970097009701,-0.9637017042643872
0.9710971097109711,-0.9108322618284822
0.9720972097209721,-0.8585753208100801
0.9730973097309731,-0.9434580910714697
0.9740974097409741,-0.9884744882547877
0.9750975097509751,-0.9148508522651229
0.9760976097609761,-0.9980108249155061
0.9770977097709771,-1.0510900262063225
0.9780978097809782,-0.9489793138301406
0.9790979097909791,-1.0040411837439678
0.98009800980098,-0.98558726683225
0.9810981098109811,-0.9279312378952491
0.9820982098209821,-0.9691892222036187
0.9830983098309831,-0.9804792771267445
0.9840984098409841,-0.994588008019278
0.9850985098509851,-1.0652326080375125
0.9860986098609861,-0.9757388793779298
0.9870987098709871,-0.9595339769180763
0.9880988098809881,-0.9990270992419644
0.9890989098909891,-0.9418179377887946
0.9900990099009901,-0.9191752510821276
0.9910991099109911,-0.9343202331866522
0.9920992099209921,-0.9741813534736693
0.9930993099309932,-0.8584307733072865
0.9940994099409941,-0.8531023060974645
0.995099509950995,-0.8008892313033816
0.9960996099609961,-0.8249091368431778
0.9970997099709971,-0.7716153474350441
0.9980998099809981,-0.8450869800736533
0.9990999099909991,-0.6470798477779347
1.000100010001,-0.5878255440483767
1.001100110011001,-0.629489738109054
1.0021002100210021,-0.5606646311749103
1.0031003100310032,-0.5865803802159122
1.004100410041004,-0.496728951203048
1.005100510051005,-0.49866379899628677
1.0061006100610062,-0.43527349538169374
1.0071007100710072,-0.4696975389619006
1.008100810081008,-0.4491544332984072
1.009100910091009,-0.38411316354453484
1.0101010101010102,-0.3476083152091444
1.011101110111011,-0.27161783930121075
1.012101210121012,-0.3409208295509431
1.0131013101310131,-0.2406201065924753
1.0141014101410142,-0.28025804606101967
1.015101510151015,-0.148442639279054
1.016101610161016,-0.16864122563570225
1.0171017101710171,-0.009170881858653529
1.0181018101810182,-0.06467889631851455
1.019101910191019,-0.10983201510198361
1.02010201020102,0.023370087208804628
1.0211021102110212,0.06617396818607363
1.0221022102210222,0.21960461173651077
1.023102310231023,0.18460776931202882
1.024102410241024,0.2659247176725387
1.0251025102510252,0.4343907080081859
1.026102610261026,0.3326176177598352
1.027102710271027,0.49329851109110784
1.0281028102810281,0.5644983962691019
1.0291029102910292,0.6130552906831895
1.03010301030103,0.7041032682090459
1.031103110311031,0.6552939352129863
1.0321032103210321,0.7687451570901324
1.0331033103310332,0.828176925189442
1.034103410341034,0.8765862699709783
1.035103510351035,0.9958890801143169
1.0361036103610362,0.8806936813075086
1.0371037103710372,1.093184444391302
1.038103810381038,0.9948240977101921
1.039103910391039,1.0109862697587009
1.0401040104010402,0.9630065400704724
1.041104110411041,0.9951633704585877
1.042104210421042,0.9741124285313211
1.0431043104310431,0.937293180508335
1.0441044104410442,0.9321337653615858
1.045104510451045,0.8735164719638392
1.046104610461046,0.866160709299001
1.0471047104710471,0.8294071329987932
1.0481048104810482,0.8695625302098289
1.049104910491049,0.7813525823678695
1.05010501050105,0.7101469208477081
1.0511051105110512,0.626246611086721
1.0521052105210522,0.6387366680758223
1.053105310531053,0.5359871947094431
1.054105410541054,0.39447862329891237
1.0551055105510552,0.3223523118224339
1.056105610561056,0.33658531105765754
1.057105710571057,0.22334686385989272
1.0581058105810581,0.07729764807105804
1.0591059105910592,0.06968732139962333
1.06010601060106,-0.092053010459312
1.061106110611061,-0.13491503043586778
1.0621062106210621,-0.20157588072631044
1.0631063106310632,-0.2146269336446691
1.064106410641064,-0.39588032078401947
1.065106510651065,-0.4687822669565693
1.0661066106610662,-0.5171474798542253
1.0671067106710672,-0.5528097250370215
1.068106810681068,-0.724104076970037
1.0691069106910691,-0.6364532566685803
1.0701070107010702,-0.73782457163163
1.071107110711071,-0.8445506996679496
1.072107210721072,-0.8573922437663228
1.0731073107310731,-0.8785595513752644
1.0741074107410742,-0.9696944024758352
1.075107510751075,-0.8850818640610003
1.076107610761076,-0.9671553152790684
1.0771077107710771,-1.0187963132376336
1.0781078107810782,-1.0848997751013933
1.079107910791079,-1.0151060584048497
1.08010801080108,-0.9498473678290938
1.0811081108110812,-1.0113368391743924
1.0821082108210822,-1.115929009415106
1.083108310831083,-1.0054126873397422
1.0841084108410841,-0.900407289851789
1.0851085108510852,-0.983912234348179
1.086108610861086,-0.9306966537341997
1.087108710871087,-0.8667817895026328
1.0881088108810881,-0.8106348102862561
1.0891089108910892,-0.6898799213687143
1.09010901090109,-0.6764482343959579
1.091109110911091,-0.47535320604458
1.0921092109210921,-0.5378298466334873
1.0931093109310932,-0.4854441643966735
1.094109410941094,-0.36043832780297647
1.095109510951095,-0.3716146289816906
1.0961096109610962,-0.2213104159229784
1.0971097109710972,-0.05420762623939969
1.098109810981098,-0.06069649942827164
1.0991099109910991,0.021678790681199312
1.1001100110011002,0.05460713937617867
1.101110111011101,-0.005046086255261118
1.102110211021102,0.02845796980782686
1.1031103110311031,0.07947130020034125
1.1041104110411042,0.008209582259925102
1.105110511051105,0.06381603963832878
1.106110611061106,0.027428159091697782
1.1071107110711071,0.17184058390447488
1.1081108110811082,0.10955693799065516
1.109110911091109,0.21774523344817348
1.11011101110111,0.29952954428444445
1.1111111111111112,0.5051418885586084
1.1121112111211122,0.4662437568314637
1.113111311131113,0.5266063524132762
1.1141114111411141,0.7154482675464007
1.1151115111511152,0.6480191396843167
1.116111611161116,0.7275541920503775
1.117111711171117,0.7630475307847002
1.1181118111811181,0.8660582029365598
1.1191119111911192,0.9000275849472918
1.12011201120112,0.929872542267862
1.121112111211121,0.9113495773931656
1.1221122112211221,1.0158774787414753
1.1231123112311232,0.9673443851425052
1.124112411241124,1.0905427200161928
1.125112511251125,1.0605286061101207
1.1261126112611262,1.0240829831609446
1.1271127112711272,1.0143604635245265
1.128112811281128,0.9714473513857983
1.1291129112911291,0.8778257873937825
1.1301130113011302,0.8392383640143322
1.131113111311131,0.9699978117477615
1.132113211321132,0.7565604004770872
1.1331133113311331,0.7709398904203726
1.1341134113411342,0.7551405434532785
1.135113511351135,0.6605150237170603
1.136113611361136,0.48948793728314915
1.1371137113711371,0.41311378480070593
1.1381138113811382,0.41579182179940766
1.139113911391139,0.31366872003796276
1.14011401140114,0.3020978296496866
1.1411141114111412,0.3012546928264445
1.1421142114211422,0.16496718276357214
1.143114311431143,0.14670981604059452
1.1441144114411441,0.10964417719784263
1.1451145114511452,0.15888054770019128
1.146114611461146,0.10166690612707667
1.147114711471147,0.010777436753871768
1.1481148114811481,-0.12759371568320352
1.1491149114911492,0.05917708058198564
1.15011501150115,0.007784670893834232
1.151115111511151,0.01563811766418917
1.1521152115211521,0.047724175995641285
1.1531153115311532,0.07979346505266993
1.154115411541154,0.0974656822461934
1.155115511551155,0.11753461626273853
1.1561156115611562,0.21463076637171685
1.1571157115711572,0.3222019474652993
1.158115811581158,0.34087019615382147
1.1591159115911591,0.36592958775154294
1.1601160116011602,0.36535974446766584
1.161116111611161,0.399970751019799
1.162116211621162,0.47679438368192456
1.1631163116311631,0.611483431572823
1.1641164116411642,0.5781286618000518
1.165116511651165,0.8038195659887377
1.166116611661166,0.757402831960069
1.1671167116711672,0.7361691379268499
1.1681168116811682,0.7626800020991256
1.169116911691169,0.8058278707589603
1.17011701170117,1.0418675842120118
1.1711171117111712,0.946660079966036
1.1721172117211722,1.011147776764501
1.173117311731173,0.9797735325332065
1.1741174117411741,1.0146655409480514
1.1751175117511752,1.0565782789053069
1.176117611761176,1.044926877924276
1.177117711771177,1.0049470041780288
1.1781178117811781,0.9607609926051562
1.1791179117911792,0.9311357913779332
1.18011801180118,0.7906728735890988
1.181118111811181,0.7868179685871733
1.1821182118211822,0.7253915360021108
1.1831183118311832,0.7449683095236458
1.184118411841184,0.6162146535550018
1.185118511851185,0.6127345351087592
1.1861186118611862,0.5833222752593441
1.1871187118711872,0.4245512390265383
1.188118811881188,0.4873241608649688
1.1891189118911891,0.3334373439274092
1.1901190119011902,0.31233219880842944
1.191119111911191,0.1259274180128529
1.192119211921192,0.16632964938774167
1.1931193119311931,0.20158973482303488
1.1941194119411942,0.14173314711379797
1.195119511951195,0.12259255320277679
1.196119611961196,0.02551060179585233
1.1971197119711972,0.0038723125773811005
1.1981198119811982,-0.09285308822903414
1.199119911991199,0.01186253750163868
1.2001200120012,0.008762328790720026
1.2011201120112012,0.038042965944311787
1.2021202120212022,0.08402284301682487
1.203120312031203,0.0792232728095133
1.2041204120412041,0.17416111903962833
1.2051205120512052,0.19939054514160937
1.206120612061206,0.1743340290627807
1.207120712071207,0.23944970686903935
1.2081208120812081,0.2963952573614601
1.2091209120912092,0.36399249524660016
1.21012101210121,0.3943477665617821
1.211121112111211,0.3809522322326732
1.2121212121212122,0.49031664119865737
1.2131213121312132,0.465345635423835
1.214121412141214,0.4700831885297466
1.215121512151215,0.5903151806635579
1.2161216121612162,0.561623437859491
1.2171217121712172,0.5923640196679233
1.218121812181218,0.5275302245808955
1.2191219121912191,0.6249190593355569
1.2201220122012202,0.6444089811485257
1.221122112211221,0.7392408911926849
1.222122212221222,0.762334626753768
1.2231223122312231,0.8387094855583254
1.2241224122412242,0.7746003912534131
1.225122512251225,0.8225095183940438
1.226122612261226,0.941941125318068
1.2271227122712272,0.8220888594001234
1.2281228122812282,0.9019220164266992
1.229122912291229,0.8657732468909494
1.2301230123012301,0.9045249472109147
1.2311231123112312,0.9243610149978465
1.2321232123212322,0.8894525406294589
1.233123312331233,0.9401551057943427
1.2341234123412341,1.0146666008441811
1.2351235123512352,1.0164936392836634
1.236123612361236,1.0839575865681623
1.237123712371237,1.0335498012294007
1.2381238123812381,1.0110196983195612
1.2391239123912392,1.043117888673248
1.24012401240124,1.0003885384237268
1.241124112411241,1.0551410319128665
1.2421242124212422,0.9012705162612007
1.2431243124312432,0.9473689448411958
1.244124412441244,1.0444523026678703
1.2451245124512451,0.8664780159965233
1.2461246124612462,1.0206730145347918
1.2471247124712472,1.0008276717064748
1.248124812481248,0.9329154183436649
1.2491249124912491,1.0187146655338393
1.2501250125012502,0.9678046117440554
1.251125112511251,0.8932268435405276
1.252125212521252,0.888616443174546
1.2531253125312531,0.8229926920004463
1.2541254125412542,0.7885163723323895
1.255125512551255,0.7953917719884382
1.256125612561256,0.8905072648168427
1.2571257125712572,0.6769448896561727
1.2581258125812582,0.7404509104147098
1.259125912591259,0.682413302813188
1.2601260126012601,0.7563576649861636
1.2611261126112612,0.6464017065587491
1.2621262126212622,0.6518194319365966
1.263126312631263,0.7146780843811146
1.2641264126412641,0.5574982764157658
1.2651265126512652,0.5028821475681947
1.266126612661266,0.4404556853113333
1.267126712671267,0.5550602439562576
1.2681268126812681,0.48511849118794315
1.2691269126912692,0.43357846203350325
1.27012701270127,0.43723520939999827
1.271127112711271,0.34633904411683175
1.2721272127212722,0.2999441195084019
1.2731273127312732,0.28016810586719854
1.274127412741274,0.24236442066086106
1.2751275127512751,0.18954527997081655
1.2761276127612762,0.13783301245651558
1.2771277127712772,0.09876691065339221
1.278127812781278,0.10961968371363534
1.2791279127912791,0.06672969276199468
1.2801280128012802,0.021209249578024038
1.281128112811281,-0.038286219820950845
1.282128212821282,-0.12103495499097291
1.2831283128312831,-0.19183961150487774
1.2841284128412842,-0.17626587890688677
1.285128512851285,-0.2090599037221493
1.286128612861286,-0.3063862366741209
1.2871287128712872,-0.28382801899015664
1.2881288128812882,-0.3781083688939939
1.289128912891289,-0.4057111978407845
1.2901290129012901,-0.39210791360473723
1.2911291129112912,-0.4652188665509936
1.2921292129212922,-0.460535207468772
1.293129312931293,-0.5039131917894933
1.2941294129412941,-0.5199485090469711
1.2951295129512952,-0.6271918348281
1.296129612961296,-0.6172807721115903
1.297129712971297,-0.6481919400423566
1.2981298129812981,-0.6332660664120101
1.2991299129912992,-0.6550594959107875
1.3001300130013,-0.6410829249869908
1.301130113011301,-0.6844102026437531
1.3021302130213022,-0.6972155156394965
1.3031303130313032,-0.8236454858261361
1.304130413041304,-0.8313587158466592
1.3051305130513051,-0.9603892112130169
1.3061306130613062,-0.8792762719248757
1.3071307130713072,-0.9062161326883892
1.308130813081308,-0.9232811795653775
1.3091309130913091,-0.9500127076643913
1.3101310131013102,-0.9298316905399774
1.311131113111311,-0.9604781167828015
1.312131213121312,-0.9770514209664818
1.3131313131313131,-0.9843737394242492
1.3141314131413142,-1.0223218957870233
1.315131513151315,-0.8410469686175324
1.316131613161316,-0.9688983490914951
1.3171317131713172,-0.9911008101071477
1.3181318131813182,-1.0116092981560207
1.319131913191319,-1.035087957632989
1.3201320132013201,-1.0718141516701696
1.3211321132113212,-0.992639358397248
1.3221322132213222,-0.9804602752219176
1.323132313231323,-1.006691961775508
1.3241324132413241,-0.9473132783760423
1.3251325132513252,-1.0081873694385208
1.326132613261326,-0.9129519164164778
1.327132713271327,-0.9835008568970658
1.3281328132813282,-0.8957527684645945
1.3291329132913292,-0.899485049099526
1.33013301330133,-0.8033955835999719
1.331133113311331,-0.823007393090737
1.3321332133213322,-0.8661622807931013
1.3331333133313332,-0.9247372963045658
1.334133413341334,-0.8239059991953382
1.3351335133513351,-0.8608464555950234
1.3361336133613362,-0.7924841688999876
1.3371337133713372,-0.7319421080015158
1.338133813381338,-0.7813852348042898
1.3391339133913391,-0.8022156241939451
1.3401340134013402,-0.6938783482762044
1.341134113411341,-0.6087864838524206
1.342134213421342,-0.560352904065785
1.3431343134313432,-0.64213525454897
1.3441344134413442,-0.6983634672862131
1.345134513451345,-0.4905197242286029
1.346134613461346,-0.46579503573456704
1.3471347134713472,-0.44885531162954934
1.3481348134813482,-0.4983584773792892
1.349134913491349,-0.41920051444490447
1.3501350135013501,-0.32045659545660066
1.3511351135113512,-0.3372342616628467
1.3521352135213522,-0.2673520789766996
1.353135313531353,-0.22641504559172254
1.3541354135413541,-0.2802271669272232
1.3551355135513552,-0.2089394013388804
1.356135613561356,-0.08235862915139963
1.357135713571357,-0.014423919957319412
1.3581358135813582,-0.04841299015222805
1.3591359135913592,0.012078748950054018
1.36013601360136,0.08426377095101378
1.361136113611361,-0.1053274070230337
1.3621362136213622,0.16153820395080012
1.3631363136313632,0.08422387193960043
1.364136413641364,0.2850551438875026
1.3651365136513651,0.3749380616433442
1.3661366136613662,0.5007096347696889
1.3671367136713672,0.5800292567443983
1.368136813681368,0.580723693578671
1.3691369136913691,0.6858633691940159
1.3701370137013702,0.7259978152746279
1.371137113711371,0.7575277013211166
1.372137213721372,0.7464998756690423
1.3731373137313732,0.9696623922651935
1.3741374137413742,0.9039979168821175
1.375137513751375,0.8907220152775036
1.376137613761376,0.8630349965656209
1.3771377137713772,0.968017230954875
1.3781378137813782,0.9844541558441048
1.379137913791379,0.944228806675945
1.3801380138013801,1.0146194384158491
1.3811381138113812,0.9806763554352766
1.3821382138213822,1.010310010832926
1.383138313831383,0.8890417901919139
1.3841384138413841,1.0049189585795542
1.3851385138513852,0.8969834999815636
1.386138613861386,0.874811515067358
1.387138713871387,0.8437560743855093
1.3881388138813882,0.7566630838314123
1.3891389138913892,0.7813327529385574
1.39013901390139,0.7331001834469488
1.3911391139113911,0.6774451710389728
1.3921392139213922,0.5424140367485895
1.3931393139313932,0.502919406077135
1.394139413941394,0.4146575013565446
1.3951395139513951,0.3808587108304624
1.3961396139613962,0.23694701438608642
1.3971397139713972,0.1599372058662848
1.398139813981398,0.09298956831508194
1.3991399139913991,0.12447105444074219
1.4001400140014002,-0.010219933040369288
1.401140114011401,-0.1235630305742632
1.402140214021402,-0.22156253764185418
1.4031403140314032,-0.2727632748729659
1.4041404140414042,-0.35694575168590004
1.405140514051405,-0.35800805980699885
1.4061406140614061,-0.6066387253473973
1.4071407140714072,-0.5297905049927069
1.4081408140814082,-0.5957535428454845
1.409140914091409,-0.694159250203147
1.4101410141014101,-0.8004932054270204
1.4111411141114112,-0.8458567249476352
1.4121412141214122,-0.8129078705813275
1.413141314131413,-0.8976673658202963
1.4141414141414141,-0.9173648688729855
1.4151415141514152,-0.9440605158287775
1.416141614161416,-0.9368381078886306
1.417141714171417,-0.9917592609199619
1.4181418141814182,-0.9576138693119443
1.4191419141914192,-1.0222801922658522
1.42014201420142,-1.0438981255400877
1.4211421142114211,-0.9961834080847084
1.4221422142214222,-1.0156106404516358
1.4231423142314232,-0.9973222876202907
1.424142414241424,-0.894034506996559
1.4251425142514251,-0.9382836942961595
1.4261426142614262,-0.7859693522576238
1.4271427142714272,-0.8309317460732752
1.428142814281428,-0.7063356177240725
1.4291429142914291,-0.6514205793802065
1.4301430143014302,-0.7617812378272878
1.431143114311431,-0.5689359423931785
1.432143214321432,-0.6031680010375359
1.4331433143314332,-0.5028946232470051
1.4341434143414342,-0.4041684523611049
1.435143514351435,-0.2950689523415383
1.4361436143614361,-0.20511612730748396
1.4371437143714372,-0.1819958047395688
1.4381438143814382,-0.021394014602306215
1.439143914391439,0.03355004340949966
1.4401440144014401,-0.05055738068871973
1.4411441144114412,-0.009175581261621012
1.4421442144214422,0.007146945519249473
1.443144314431443,0.0657877039719688
1.4441444144414441,0.0030278101016383424
1.4451445144514452,0.11735651799631341
1.446144614461446,0.13702974041535598
1.447144714471447,0.2549455802338269
1.4481448144814482,0.20741390261756068
1.4491449144914492,0.36125608174452317
1.45014501450145,0.3934935149253083
1.4511451145114511,0.38465941939325016
1.4521452145214522,0.44471557330856376
1.4531453145314532,0.5649158135274217
1.454145414541454,0.5150932374082319
1.4551455145514551,0.7013040994907902
1.4561456145614562,0.7556361521925112
1.4571457145714573,0.8117647579942232
1.458145814581458,0.8773204737432388
1.4591459145914591,0.8918799305816137
1.4601460146014602,0.9104677885234106
1.461146114611461,0.9759487636828236
1.462146214621462,1.0259553123256449
1.4631463146314632,0.9194184334889242
1.4641464146414642,1.038457428407503
1.465146514651465,0.9380359569038615
1.4661466146614661,0.9618287730369998
1.4671467146714672,0.9408130394878912
1.4681468146814682,0.9664893409553664
1.469146914691469,0.9591041481318898
1.4701470147014701,0.8926613264569735
1.4711471147114712,0.8343475292526661
1.4721472147214723,0.7272803837613115
1.473147314731473,0.6345831173150728
1.4741474147414741,0.6960127012109283
1.4751475147514752,0.6707795247486036
1.476147614761476,0.5788625324891838
1.477147714771477,0.5433515943942699
1.4781478147814782,0.49955221071130723
1.4791479147914792,0.31995435214896795
1.48014801480148,0.26155855736810907
1.4811481148114811,0.3334960553087614
1.4821482148214822,0.2148612978857907
1.4831483148314832,0.24151062018579944
1.484148414841484,0.10708754991312062
1.4851485148514851,0.06678364609516511
1.4861486148614862,0.0812834973773376
1.4871487148714873,0.009273000416457816
1.488148814881488,0.0040531929299572
1.4891489148914892,0.021698635790643912
1.4901490149014902,0.006039359215672276
1.491149114911491,-0.0366670174200385
1.492149214921492,0.010705374721571943
1.4931493149314932,0.05927443145137417
1.4941494149414942,0.16174417545492217
1.495149514951495,0.11548624311229701
1.4961496149614961,0.17874357645192968
1.4971497149714972,0.2689058320250042
1.4981498149814982,0.2822431233884684
1.499149914991499,0.3375136739402627
1.5001500150015001,0.3546926009554825
1.5011501150115012,0.4958556573059452
1.5021502150215023,0.3731550079887601
1.503150315031503,0.6327779344518665
1.5041504150415042,0.6271660709803375
1.5051505150515052,0.7064914667785649
1.506150615061506,0.7303125548802569
1.507150715071507,0.7901196293808291
1.5081508150815082,0.8602985853325786
1.5091509150915092,0.8557051803307768
1.51015101510151,0.8972177893826788
1.5111511151115111,0.981212919052816
1.5121512151215122,0.9894816862666048
1.5131513151315132,0.9635448453865069
1.514151415141514,1.0998673590725139
1.5151515151515151,0.9622893437826102
1.5161516151615162,0.9095739765502169
1.5171517151715173,0.9989291811033124
1.518151815181518,0.9356875356933502
1.5191519151915192,0.8933380193398811
1.5201520152015202,0.8920089809478366
1.521152115211521,0.9097105886823512
1.522152215221522,0.8694656880206241
1.5231523152315232,0.7364078556622407
1.5241524152415242,0.6373708433884576
1.525152515251525,0.49118323508030326
1.5261526152615261,0.5103001808630396
1.5271527152715272,0.49817094520713495
1.5281528152815282,0.3471064684900257
1.529152915291529,0.2893218469503911
1.5301530153015301,0.29331942588943793
1.5311531153115312,0.24261871088852113
1.5321532153215323,0.16158932417504385
1.533153315331533,0.10742391070951945
1.5341534153415342,0.0329057428323091
1.5351535153515352,0.05507994919020483
1.536153615361536,0.05212786387938949
1.537153715371537,-0.02404152060319721
1.5381538153815382,-0.06596191345000374
1.5391539153915392,-0.01065881199850599
1.54015401540154,0.09940251876668625
1.5411541154115411,-0.06264829123234214
1.5421542154215422,0.12794054920288137
1.5431543154315432,0.14246785798545267
1.544154415441544,0.07243451432363313
1.5451545154515451,0.20351438251184592
1.5461546154615462,0.21013619525167626
1.5471547154715473,0.3720056937421264
1.548154815481548,0.2999594788018984
1.5491549154915492,0.3088725215516301
1.5501550155015502,0.3413065892527112
1.5511551155115513,0.4457178333466362
1.5521552155215521,0.42133029038514264
1.5531553155315532,0.5244514974629043
1.5541554155415542,0.47258560614693973
1.555155515551555,0.5246316912691542
1.5561556155615561,0.5899375089673052
1.5571557155715572,0.5813716287866748
1.5581558155815582,0.6278361520804497
1.559155915591559,0.7121975411230339
1.5601560156015601,0.7285287988620395
1.5611561156115612,0.7618843453753542
1.5621562156215623,0.7206652197142314
1.563156315631563,0.8388177550174968
1.5641564156415642,0.7823524623628322
1.5651565156515652,0.715286061844972
1.5661566156615663,0.8085710764741401
1.5671567156715671,0.941173986401026
1.5681568156815682,0.8832474024914263
1.5691569156915692,0.8647517744724784
1.57015701570157,0.8352977137991868
1.5711571157115711,0.9969119040623176
1.5721572157215722,0.8828689510160561
1.5731573157315732,0.9306562261017964
1.574157415741574,0.9901400161731609
1.5751575157515751,0.9642026770895266
1.5761576157615762,1.0560883209065661
1.5771577157715773,1.040868091913363
1.578157815781578,0.9262181626897417
1.5791579157915792,1.017203051444784
1.5801580158015802,1.0032689442439178
1.5811581158115813,0.9912338556581246
1.5821582158215821,0.9694344518532537
1.5831583158315832,0.9727349437973589
1.5841584158415842,1.0821638153470794
1.585158515851585,0.9420235055369535
1.5861586158615861,0.9559631545081575
1.5871587158715872,0.9308052600535034
1.5881588158815882,0.994004184312433
1.589158915891589,0.941760454116737
1.5901590159015901,0.8734001408288766
1.5911591159115912,0.9481136616991517
1.5921592159215923,0.9373604639889433
1.593159315931593,0.7733687454266411
1.5941594159415942,0.8619949666598025
1.5951595159515952,0.8674884408264539
1.5961596159615963,0.7621722942627177
1.5971597159715971,0.7244513965011248
1.5981598159815982,0.7465077183090025
1.5991599159915992,0.7409467639184448
1.6001600160016,0.6526882230635904
1.6011601160116011,0.6994889154575521
1.6021602160216022,0.6662278976855486
1.6031603160316032,0.5596549974048403
1.604160416041604,0.6106713703143589
1.6051605160516051,0.5537832864501206
1.6061606160616062,0.5193938409745199
1.6071607160716073,0.5159206719842357
1.608160816081608,0.41134288466343044
1.6091609160916092,0.3580195664410045
1.6101610161016102,0.4046477471153153
1.6111611161116113,0.31849544606383895
1.6121612161216121,0.27286543536730956
1.6131613161316132,0.26892706164952107
1.6141614161416142,0.22163214427366718
1.615161516151615,0.2411013494867317
1.6161616161616161,0.10546086027168988
1.6171617161716172,0.052946362136348575
1.6181618161816183,0.012467653055373604
1.619161916191619,0.15572364768553473
1.6201620162016201,0.02354657580232579
1.6211621162116212,-0.10433845300657135
1.6221622162216223,-0.11736991469396796
1.623162316231623,-0.15797363114550078
1.6241624162416242,-0.2466110863594379
1.6251625162516252,-0.15109039686111414
1.6261626162616263,-0.2354794909676062
1.6271627162716271,-0.31408689037779336
1.6281628162816282,-0.33387871938555086
1.6291629162916292,-0.3164978096360129
1.63016301630163,-0.33492458938454067
1.6311631163116311,-0.3905264624847035
1.6321632163216322,-0.47692113505846506
1.6331633163316333,-0.4705443348889895
1.634163416341634,-0.5177054144989672
1.6351635163516351,-0.611412298096422
1.6361636163616362,-0.6044088936356214
1.6371637163716373,-0.7047702500251497
1.638163816381638,-0.6697255523923692
1.6391639163916392,-0.7119611597177651
1.6401640164016402,-0.7321340128433527
1.6411641164116413,-0.723784828270589
1.6421642164216421,-0.6704546033037934
1.6431643164316432,-0.8174330391089248
1.6441644164416442,-0.7743591819442072
1.645164516451645,-0.9069193546170714
1.6461646164616461,-0.8943782053658316
1.6471647164716472,-0.9124152953452511
1.6481648164816483,-0.9112332925906507
1.649164916491649,-0.8880764448940999
1.6501650165016502,-1.0035311391802701
1.6511651165116512,-0.9769239141930419
1.6521652165216523,-0.9413241900570497
1.653165316531653,-0.892666929600299
1.6541654165416542,-0.9526825540868586
1.6551655165516552,-0.9576373588076028
1.6561656165616563,-0.9747368656753826
1.6571657165716571,-1.070681859686345
1.6581658165816582,-1.0690585589469237
1.6591659165916592,-0.9536247351674207
1.66016601660166,-1.0046850571108938
1.6611661166116611,-0.9276056141155814
1.6621662166216622,-1.0424363550286349
1.6631663166316633,-0.9642529318933081
1.664166416641664,-0.9885588200725692
1.6651665166516652,-1.079470311888712
1.6661666166616662,-1.0217883938534644
1.6671667166716673,-0.9206024805021731
1.668166816681668,-1.0009481029861014
1.6691669166916692,-0.868856572305884
1.6701670167016702,-0.8353281863945847
1.6711671167116713,-0.917218437707193
1.6721672167216721,-0.8771233600396225
1.6731673167316732,-0.8376725692282198
1.6741674167416742,-0.8382206144878954
1.675167516751675,-0.8059662359653804
1.6761676167616761,-0.8298584843691288
1.6771677167716772,-0.7610915675460376
1.6781678167816783,-0.6908829719645302
1.679167916791679,-0.6499325744535634
1.6801680168016802,-0.7371520833742147
1.6811681168116812,-0.5975016806914281
1.6821682168216823,-0.6514630935191449
1.683168316831683,-0.6268693607560899
1.6841684168416842,-0.5122147209677351
1.6851685168516852,-0.4297534375648543
1.6861686168616863,-0.46089520072619133
1.6871687168716871,-0.47279204385563717
1.6881688168816882,-0.3801462562283215
1.6891689168916892,-0.4241359367895642
1.69016901690169,-0.41877138149447724
1.6911691169116911,-0.2899512794291709
1.6921692169216922,-0.2538760101877613
1.6931693169316933,-0.22529372587979266
1.694169416941694,-0.16703206356649558
1.6951695169516952,-0.21570569823529823
1.6961696169616962,-0.17812574065442988
1.6971697169716973,-0.10152018776604353
1.698169816981698,-0.07011781970438724
1.6991699169916992,0.05630653418389689
1.7001700170017002,0.001644669354855276
1.7011701170117013,0.17242810043962595
1.7021702170217021,0.16120805183347806
1.7031703170317032,0.20255751056384314
1.7041704170417042,0.39070422158058177
1.705170517051705,0.262187412301665
1.7061706170617061,0.4897510482995347
1.7071707170717072,0.41293586782382485
1.7081708170817083,0.6277271120976694
1.709170917091709,0.624443304443693
1.7101710171017102,0.5921017045307483
1.7111711171117112,0.8153762064052718
1.7121712171217123,0.7367774025638446
1.7131713171317131,0.8072852179972912
1.7141714171417142,0.8919788438031774
1.7151715171517152,0.9333839273375836
1.7161716171617163,0.9824427555129885
1.7171717171717171,0.9055881758751191
1.7181718171817182,0.994362061778375
1.7191719171917192,1.036043500095157
1.72017201720172,0.9999129533540926
1.7211721172117211,1.034917734614859
1.7221722172217222,0.9364474204611692
1.7231723172317233,0.9755864863484818
1.724172417241724,0.9565268932292003
1.7251725172517252,0.8402947605630287
1.7261726172617262,0.9084710105234899
1.7271727172717273,0.8124492798438807
1.7281728172817281,0.8156860526788098
1.7291729172917292,0.7923452105167647
1.7301730173017302,0.6472542092636426
1.7311731173117313,0.5808050706598104
1.7321732173217321,0.5698320899508321
1.7331733173317332,0.48252529872780964
1.7341734173417342,0.3959520008441165
1.735173517351735,0.3499605441462915
1.7361736173617361,0.2998882308050995
1.7371737173717372,0.2554948045799674
1.7381738173817383,0.07064923373588088
1.739173917391739,-0.045354998913988066
1.7401740174017402,0.08244387963733493
1.7411741174117412,-0.1863580593291057
1.7421742174217423,-0.16048294016397807
1.7431743174317431,-0.2971383511094623
1.7441744174417442,-0.32425973075129766
1.7451745174517452,-0.407149182102466
1.7461746174617463,-0.5493847347319967
1.7471747174717471,-0.4974155740618741
1.7481748174817482,-0.6382720217743972
1.7491749174917492,-0.6696510073249973
1.75017501750175,-0.7454872329635511
1.7511751175117511,-0.8158245636807386
1.7521752175217522,-0.8815100317348783
1.7531753175317533,-0.9180464529512509
1.754175417541754,-0.8533242906313125
1.7551755175517552,-0.8621536078854433
1.7561756175617562,-0.9316887966070245
1.7571757175717573,-0.9801029900638002
1.7581758175817581,-0.9496593250457732
1.7591759175917592,-1.0099455651541343
1.7601760176017602,-0.9840695493831391
1.7611761176117613,-1.0276747195852365
1.7621762176217621,-0.9932827454517879
1.7631763176317632,-0.9399436491767061
1.7641764176417642,-0.9423266895372464
1.765176517651765,-0.8916237002647666
1.7661766176617661,-0.7812723532543622
1.7671767176717672,-0.8418358487709365
1.7681768176817683,-0.8157028937109113
1.769176917691769,-0.6640843779971239
1.7701770177017702,-0.6510621585128699
1.7711771177117712,-0.5821459110944345
1.7721772177217723,-0.5208740501238892
1.7731773177317731,-0.4992850067042145
1.7741774177417742,-0.30346485137771606
1.7751775177517752,-0.38309049038255955
1.7761776177617763,-0.326737179462422
1.7771777177717771,-0.14956342097365383
1.7781778177817782,-0.09519089205975657
1.7791779177917793,-0.020668848146485
1.78017801780178,0.0046815850166275165
1.7811781178117811,-0.0718408415834857
1.7821782178217822,-0.0029193355918528154
1.7831783178317833,0.008218522592189772
1.784178417841784,-0.013701541349120244
1.7851785178517852,0.15933432276441364
1.7861786178617862,0.04767032428448162
1.7871787178717873,0.18680002162094814
1.7881788178817881,0.26244233150516677
1.7891789178917892,0.21557336075803357
1.7901790179017902,0.4299500419270603
1.7911791179117913,0.3979433072151376
1.7921792179217921,0.46178689315272375
1.7931793179317932,0.5434985085064381
1.7941794179417943,0.625257447993575
1.795179517951795,0.6134765903616944
1.7961796179617961,0.7280497580017766
1.7971797179717972,0.7503732485796373
1.7981798179817983,0.8352659985557397
1.799179917991799,0.773265466434016
1.8001800180018002,0.9103692680895515
1.8011801180118012,0.9202111993454023
1.8021802180218023,0.9585821036444518
1.8031803180318031,0.9189927797424229
1.8041804180418042,0.9355119646184769
1.8051805180518052,0.9986609460484224
1.8061806180618063,0.9978525250484513
1.8071807180718071,0.9544659940580159
1.8081808180818082,0.9618137766880107
1.8091809180918093,0.9265502267074972
1.81018101810181,0.9010603291415248
1.8111811181118112,0.896376189750376
1.8121812181218122,0.7650463995775065
1.8131813181318133,0.7645616543588346
1.814181418141814,0.7484648526670102
1.8151815181518152,0.5997752416608847
1.8161816181618162,0.5539277806263543
1.8171817181718173,0.4035188029608653
1.8181818181818181,0.4606193532365204
1.8191819181918192,0.3698289953772134
1.8201820182018202,0.3264321420300833
1.8211821182118213,0.2327935062744088
1.8221822182218221,0.2681685984097236
1.8231823182318232,0.1420998014496955
1.8241824182418243,0.027002098791101214
1.825182518251825,0.036417640036146226
1.8261826182618262,0.06283782825201399
1.8271827182718272,-0.0033417541585548903
1.8281828182818283,-0.08280949064363438
1.829182918291829,0.037902931764648234
1.8301830183018302,0.0108463908095454
1.8311831183118312,-0.032096674711772584
1.8321832183218323,-0.014941518889590583
1.8331833183318331,0.05520641781420853
1.8341834183418342,0.008402952358505383
1.8351835183518352,0.06628448306109494
1.8361836183618363,0.1665989668499506
1.8371837183718371,0.17389419730588135
1.8381838183818382,0.24243162087111694
1.8391839183918393,0.3062577651831721
1.84018401840184,0.388496729671179
1.8411841184118412,0.5181188944962429
1.8421842184218422,0.5746379699229585
1.8431843184318433,0.6185174217247459
1.844184418441844,0.6850516402630771
1.8451845184518452,0.7138972681181754
1.8461846184618462,0.6928724158600281
1.8471847184718473,0.7296606371110588
1.8481848184818481,0.8466642520847286
1.8491849184918492,0.8055986770317456
1.8501850185018502,0.8499617311990271
1.8511851185118513,0.9837682066252825
1.8521852185218521,0.9069996958862343
1.8531853185318532,0.9896915931079786
1.8541854185418543,1.0457418072193507
1.855185518551855,0.9879310203859396
1.8561856185618562,1.013177740686666
1.8571857185718572,0.9947371962680697
1.8581858185818583,0.878248913726014
1.859185918591859,0.8675145849969027
1.8601860186018602,0.9594790175142444
1.8611861186118612,0.7844645735636757
1.8621862186218623,0.6612889310436445
1.8631863186318631,0.7275780944992539
1.8641864186418642,0.6442873048069665
1.8651865186518652,0.5699045069457885
1.8661866186618663,0.5640192404334252
1.8671867186718671,0.5406695026682882
1.8681868186818682,0.27445876623784293
1.8691869186918693,0.2956938011793819
1.87018701870187,0.21179362905211335
1.8711871187118712,0.15885658626531432
1.8721872187218722,0.20744048048306446
1.8731873187318733,0.0906818147810116
1.8741874187418741,0.070883004645716
1.8751875187518752,0.010372474431922282
1.8761876187618762,-0.03739775675131235
1.8771877187718773,0.006609082885909584
1.8781878187818781,-0.0036398453472422368
1.8791879187918792,-0.10883355451199109
1.8801880188018802,0.07275871877830324
1.8811881188118813,-0.01553633466883915
1.8821882188218821,-0.04327526000488524
1.8831883188318832,0.0497079301337133
1.8841884188418843,0.13089385632708184
1.885188518851885,0.22001327828737918
1.8861886188618862,0.3102630557126477
1.8871887188718872,0.2865245508437642
1.8881888188818883,0.23496997035596406
1.8891889188918891,0.3308304448934086
1.8901890189018902,0.37939063643200666
1.8911891189118912,0.4847764008389421
1.8921892189218923,0.4297626316841239
1.8931893189318931,0.38552906554361466
1.8941894189418942,0.4633994886549432
1.8951895189518952,0.45814427698288496
1.8961896189618963,0.5317759686170697
1.8971897189718971,0.6109378639456402
1.8981898189818982,0.7357056401856615
1.8991899189918993,0.68273783595655
1.9001900190019,0.6012944024411561
1.9011901190119012,0.7283032705758578
1.9021902190219022,0.6754261527633891
1.9031903190319033,0.758733103199899
1.9041904190419041,0.8515613151876477
1.9051905190519052,0.771728015080229
1.9061906190619062,0.8749640583296854
1.9071907190719073,0.8665659436320802
1.9081908190819081,0.9445298304083408
1.9091909190919092,0.818451815854331
1.9101910191019102,0.9942398194596644
1.9111911191119113,0.9938874073536967
1.9121912191219121,0.897888124633222
1.9131913191319132,0.9528835809715175
1.9141914191419143,0.9601092093523439
1.915191519151915,0.9715479788588915
1.9161916191619162,1.031054624292818
1.9171917191719172,1.0443254775833026
1.9181918191819183,0.9713493654076564
1.9191919191919191,0.9206391535240908
1.9201920192019202,0.9720681418679195
1.9211921192119212,0.9157586007870036
1.9221922192219223,0.9689196312246466
1.9231923192319231,0.9979138286372894
1.9241924192419242,1.0057760748505817
1.9251925192519252,0.8859915514535674
1.9261926192619263,0.946540816542097
1.9271927192719271,1.0152067835569354
1.9281928192819282,0.9467113601738427
1.9291929192919293,0.9277959453454759
1.93019301930193,0.9945470681264101
1.9311931193119312,0.8765300369730408
1.9321932193219322,0.8877214051106014
1.9331933193319333,0.8580506485125684
1.9341934193419341,0.9046020459919114
1.9351935193519352,0.8540640426600149
1.9361936193619362,0.7674485269292894
1.9371937193719373,0.8428692722484629
1.9381938193819381,0.8086486290525638
1.9391939193919392,0.6985506830081328
1.9401940194019403,0.7477964539039302
1.9411941194119413,0.7214914123392399
1.9421942194219421,0.658982726038685
1.9431943194319432,0.6647788882822003
1.9441944194419443,0.5741496886380699
1.945194519451945,0.5322966725896704
1.9461946194619462,0.4881417780279375
1.9471947194719472,0.5096806392083958
1.9481948194819483,0.4536361413249577
1.9491949194919491,0.4647546234318815
1.9501950195019502,0.3138176698363872
1.9511951195119512,0.3107364391605346
1.9521952195219523,0.34067689306131294
1.9531953195319531,0.2649881057603159
1.9541954195419542,0.2633398115283457
1.9551955195519553,0.14078988477285523
1.9561956195619563,0.07131601004211087
1.9571957195719571,0.14401612717837714
1.9581958195819582,0.07789829881215776
1.9591959195919593,-0.04352923540319582
1.96019601960196,-0.05184298171700994
1.9611961196119612,-0.034933032939859734
1.9621962196219622,-0.13392060544994136
1.9631963196319633,-0.20528224454266547
1.9641964196419641,-0.15476715296967167
1.9651965196519652,-0.3217430967100416
1.9661966196619662,-0.2928396636187462
1.9671967196719673,-0.2410529914115457
1.9681968196819681,-0.2671829845092038
1.9691969196919692,-0.29630261735166236
1.9701970197019703,-0.3172273131421224
1.9711971197119713,-0.4423016888851414
1.9721972197219722,-0.5784588459977444
1.9731973197319732,-0.5364580707661157
1.9741974197419743,-0.5441849260815368
1.975197519751975,-0.5985568723004987
1.9761976197619762,-0.6447103673619675
1.9771977197719772,-0.6047763368569685
1.9781978197819783,-0.6655171548250702
1.9791979197919791,-0.8145768925946172
1.9801980198019802,-0.7674305232398695
1.9811981198119812,-0.7453127891034979
1.9821982198219823,-0.7956857664895811
1.9831983198319831,-0.8560899005017963
1.9841984198419842,-0.8979341531218645
1.9851985198519853,-0.7799837971035133
1.9861986198619863,-0.8995409799268405
1.9871987198719872,-1.0382822176535331
1.9881988198819882,-0.9852223157014182
1.9891989198919893,-0.9361148445320031
1.99019901990199,-0.9994250230312602
1.9911991199119912,-0.9506244525734987
1.9921992199219922,-1.0097303717351216
1.9931993199319933,-1.0274644659785883
1.9941994199419941,-0.9949444086216248
1.9951995199519952,-0.9006740863845839
1.9961996199619962,-1.0114825177505535
1.9971997199719973,-0.9658190038673711
1.9981998199819981,-0.9689955514603621
1.9991999199919992,-1.020603181979795
2.000200020002,-0.9737138923925861
2.001200120012001,-0.993597322641523
2.002200220022002,-1.005114196829266
2.003200320032003,-0.9513038898397254
2.0042004200420043,-1.0678162639572903
2.0052005200520053,-0.9756977010025791
2.0062006200620064,-0.9528531808604186
2.007200720072007,-0.9612305501497155
2.008200820082008,-0.9596738258737234
2.009200920092009,-0.9422089061959863
2.01020102010201,-0.9529031998811373
2.0112011201120112,-0.9120632300280331
2.0122012201220123,-0.865630653406474
2.0132013201320134,-0.8003502239264586
2.0142014201420144,-0.9516639364605424
2.015201520152015,-0.8299353417578911
2.016201620162016,-0.7360758651087629
2.017201720172017,-0.7463607050702533
2.018201820182018,-0.6256622675061584
2.0192019201920193,-0.6857402293267981
2.0202020202020203,-0.7321298765946719
2.0212021202120214,-0.6190409339427874
2.022202220222022,-0.6013635266071563
2.023202320232023,-0.5864508254371569
2.024202420242024,-0.5383946207271852
2.025202520252025,-0.5193792413041567
2.0262026202620262,-0.48525468896941837
2.0272027202720273,-0.4246670388176683
2.0282028202820284,-0.4583050249277105
2.0292029202920294,-0.3189354829104394
2.03020302030203,-0.2763748115510356
2.031203120312031,-0.28002556899673847
2.032203220322032,-0.24548420321867467
2.033203320332033,-0.2675814347531762
2.0342034203420343,-0.24126986449944085
2.0352035203520353,-0.26327189288041597
2.0362036203620364,-0.11683427590672915
2.037203720372037,-0.07331241798344036
2.038203820382038,-0.14772394586342974
2.039203920392039,0.0037578822845032145
2.04020402040204,-0.0531113241062702
2.0412041204120412,0.1576917645308859
2.0422042204220423,0.04208883484939513
2.0432043204320434,0.17138408795513638
2.0442044204420444,0.37029353634254303
2.045204520452045,0.4323141745391953
2.046204620462046,0.43121572553817444
2.047204720472047,0.5407832343069325
2.048204820482048,0.61591486583454
2.0492049204920493,0.6374344276260516
2.0502050205020503,0.7824614557762115
2.0512051205120514,0.7454403360900975
2.052205220522052,0.8060506657989336
2.053205320532053,0.9111308900651174
2.054205420542054,0.9070118129942112
2.055205520552055,0.8801318378733515
2.0562056205620562,0.9537838411721067
2.0572057205720573,0.9864603672698629
2.0582058205820584,1.0439634186409137
2.0592059205920594,0.9868955147458852
2.06020602060206,1.0142911624225266
2.061206120612061,0.9963958507879291
2.062206220622062,1.021086441734893
2.063206320632063,0.8995257562864554
2.0642064206420643,0.9346887973168974
2.0652065206520653,0.8482892789886632
2.0662066206620664,0.8905224366880543
2.067206720672067,0.8707730250471025
2.068206820682068,0.783656793361604
2.069206920692069,0.6602488549325147
2.07020702070207,0.6910791445923429
2.0712071207120712,0.6348699964256658
2.0722072207220723,0.6598591103802334
2.0732073207320734,0.5603310096931542
2.0742074207420744,0.446775692496024
2.075207520752075,0.3598609934222423
2.076207620762076,0.25600264222984526
2.077207720772077,0.24109163104485834
2.078207820782078,0.08491851154511665
2.0792079207920793,0.041308260608871
2.0802080208020803,-0.001402189715537669
2.0812081208120814,-0.18071037609845425
2.082208220822082,-0.23676184200976208
2.083208320832083,-0.22152648338587194
2.084208420842084,-0.3949221171500495
2.085208520852085,-0.3202217279478457
2.0862086208620862,-0.4630961235751549
2.0872087208720873,-0.6065298186175667
2.0882088208820884,-0.5693380999822812
2.0892089208920894,-0.6223780651131064
2.09020902090209,-0.8354921000036786
2.091209120912091,-0.7184181081424749
2.092209220922092,-0.8437093533196265
2.093209320932093,-0.9229149389786884
2.0942094209420943,-0.8876068740157347
2.0952095209520953,-0.9554274722350724
2.0962096209620964,-0.9393561728560228
2.097209720972097,-1.02477651020625
2.098209820982098,-0.9995862188959327
2.099209920992099,-1.0372453336922467
2.1002100210021,-0.9756225147195418
2.1012101210121013,-1.0691658110211255
2.1022102210221023,-0.9770358605840772
2.1032103210321034,-0.9951332877560359
2.1042104210421044,-0.9347666759855227
2.105210521052105,-0.9435606774431896
2.106210621062106,-0.8467175811084182
2.107210721072107,-0.7475623590716258
2.108210821082108,-0.8434583423756976
2.1092109210921093,-0.6515820305511913
2.1102110211021103,-0.539057387388632
2.1112111211121114,-0.6413241330953677
2.112211221122112,-0.46229487073170933
2.113211321132113,-0.5093868995770667
2.114211421142114,-0.3425489870417516
2.115211521152115,-0.26896519513762485
2.1162116211621163,-0.26391178414110916
2.1172117211721173,-0.10393966004739613
2.1182118211821184,-0.03229023067860221
2.1192119211921194,0.014867885621882721
2.12021202120212,-0.0420095067612771
2.121212121212121,-0.06357991732842509
2.122212221222122,0.009762523761243574
2.1232123212321232,0.05367559118075231
2.1242124212421243,0.023402375810553933
2.1252125212521253,0.06826363942489554
2.1262126212621264,0.1774335308028944
2.127212721272127,0.27304298513629455
2.128212821282128,0.24008865494366974
2.129212921292129,0.2617443195037715
2.13021302130213,0.38480108312271133
2.1312131213121313,0.49820271807272104
2.1322132213221323,0.5030567105224778
2.1332133213321334,0.522708625415341
2.1342134213421344,0.6872224492788426
2.135213521352135,0.7123029314021571
2.136213621362136,0.7762469853602483
2.137213721372137,0.8097194795596618
2.1382138213821382,0.8916695248696477
2.1392139213921393,0.8391030399799372
2.1402140214021403,0.9228066141283123
2.1412141214121414,1.032177892598722
2.142214221422142,0.9999943679661651
2.143214321432143,0.9874391211063027
2.144214421442144,0.987712985805528
2.145214521452145,1.0457835895095315
2.1462146214621463,0.9318791797873803
2.1472147214721473,0.9167282102164659
2.1482148214821484,1.0603452029741232
2.1492149214921494,0.8973454715150029
2.15021502150215,0.9092843113307795
2.151215121512151,0.8795532676787526
2.152215221522152,0.7959924159205282
2.1532153215321532,0.7931036306298493
2.1542154215421543,0.689450337302715
2.1552155215521553,0.6112116386192176
2.1562156215621564,0.49232812760820427
2.157215721572157,0.5035605163162
2.158215821582158,0.38641384273470536
2.159215921592159,0.3381126744734321
2.16021602160216,0.37959816942368274
2.1612161216121613,0.2323099108730017
2.1622162216221623,0.2134006353542912
2.1632163216321634,0.07961246905993624
2.1642164216421644,0.04242903780230124
2.165216521652165,0.036798663809746175
2.166216621662166,-0.04742126941570134
2.167216721672167,-0.05631851275600862
2.1682168216821682,0.017790859512715335
2.1692169216921693,-0.1144920107177849
2.1702170217021703,-0.09048815707773333
2.1712171217121714,0.06269291859392816
2.172217221722172,-0.04868382634564818
2.173217321732173,0.07842955577141437
2.174217421742174,0.15003419005896043
2.175217521752175,0.11456661099989833
2.1762176217621763,0.10142372883546955
2.1772177217721773,0.201864552824696
2.1782178217821784,0.275126954596242
2.1792179217921794,0.32936393377615625
2.18021802180218,0.38005064054071275
2.181218121812181,0.3995130028664535
2.182218221822182,0.48313600125643813
2.1832183218321832,0.6183939464338789
2.1842184218421843,0.5714194880520229
2.1852185218521853,0.7640515950935287
2.1862186218621864,0.7808545601799255
2.187218721872187,0.8424290403899323
2.188218821882188,0.7686997054747188
2.189218921892189,0.8731584240205088
2.19021902190219,0.8824181177899492
2.1912191219121913,0.9520914182439552
2.1922192219221923,1.0596086948971997
2.1932193219321934,1.011875495226339
2.1942194219421944,0.9348165759426512
2.195219521952195,1.0148291177139082
2.196219621962196,1.0469632633631072
2.197219721972197,0.9400133772170283
2.1982198219821982,0.9210070192082473
2.1992199219921993,0.999150352265569
2.2002200220022003,0.8064237520206878
2.2012201220122014,0.7880631926387754
2.202220222022202,0.7935204257254769
2.203220322032203,0.7449064080370557
2.204220422042204,0.6045163706710528
2.205220522052205,0.5727267220286238
2.2062206220622063,0.5912310536910919
2.2072207220722073,0.3783638916936176
2.2082208220822084,0.3661522108811483
2.2092209220922094,0.3289440063149393
2.21022102210221,0.35634225555407745
2.211221122112211,0.31320343854680327
2.212221222122212,0.20989934915610026
2.2132213221322132,0.1259884497051441
2.2142214221422143,0.058147735750375
2.2152215221522153,-0.03103352612172358
2.2162216221622164,-0.04552378769327532
2.217221722172217,-0.03761071813004017
2.218221822182218,-0.042408659126615775
2.219221922192219,0.02431006990992359
2.22022202220222,-0.007155288711718193
2.2212221222122213,0.019363104263917474
2.2222222222222223,0.14589264000239313
2.2232223222322234,0.13048812283830577
2.2242224222422244,0.11441916931296425
2.225222522252225,0.2306781576145633
2.226222622262226,0.2930906467338963
2.227222722272227,0.2439794647386064
2.2282228222822282,0.27512008612188665
2.2292229222922293,0.43017699778587987
2.2302230223022304,0.35577571223529275
2.2312231223122314,0.37670095877465715
2.232223222322232,0.4628314818273137
2.233223322332233,0.432190544201805
2.234223422342234,0.5001554753616442
2.235223522352235,0.4981552118603697
2.2362236223622363,0.5342357909557628
2.2372237223722373,0.5759561230830917
2.2382238223822384,0.7187416170013139
2.2392239223922394,0.7058181949083595
2.24022402240224,0.6469258089889274
2.241224122412241,0.7685911372917777
2.242224222422242,0.8191414184110123
2.2432243224322432,0.826801690869073
2.2442244224422443,0.8273825083788872
2.2452245224522454,0.7801270381634812
2.2462246224622464,0.8196161361508492
2.247224722472247,0.8966126115003881
2.248224822482248,0.9237344245603488
2.249224922492249,0.9549864090750739
2.25022502250225,0.9305746853135596
2.2512251225122513,0.9185651023261521
2.2522252225222523,0.9713137652702272
2.2532253225322534,1.02132150256337
2.2542254225422544,0.9335312695263103
2.255225522552255,1.0314818248425368
2.256225622562256,1.0571681398438475
2.257225722572257,1.0004133900529364
2.2582258225822582,0.9654816908975454
2.2592259225922593,1.0085391452790808
2.2602260226022604,0.9547920365961262
2.2612261226122614,0.9946837411124941
2.262226222622262,1.0430082547150332
2.263226322632263,0.9545842131259464
2.264226422642264,1.0071295095983244
2.265226522652265,0.9672957755631687
2.2662266226622663,1.01261330460463
2.2672267226722673,1.0027224036809623
2.2682268226822684,0.9203989278591099
2.2692269226922694,0.9262359052915814
2.27022702270227,0.9481276525377758
2.271227122712271,0.8554206338618574
2.272227222722272,0.8887265003071219
2.2732273227322732,0.893314962950466
2.2742274227422743,0.8608004362309131
2.2752275227522754,0.8787258156188575
2.2762276227622764,0.7133651089139189
2.277227722772277,0.8483558564347713
2.278227822782278,0.7607848183059387
2.279227922792279,0.7041990503454738
2.28022802280228,0.7637700004834923
2.2812281228122813,0.5737507235966666
2.2822282228222823,0.6416418961053771
2.2832283228322834,0.6980046835490716
2.2842284228422844,0.6058389990506158
2.285228522852285,0.660584440338241
2.286228622862286,0.5182788361928516
2.287228722872287,0.46944515884118304
2.2882288228822882,0.3828060109021653
2.2892289228922893,0.41949980589707675
2.2902290229022904,0.34448259618504135
2.2912291229122914,0.25578889708002245
2.292229222922292,0.3210338844022632
2.293229322932293,0.2709137981459758
2.294229422942294,0.27762729897288624
2.295229522952295,0.10914597926466472
2.2962296229622963,0.11174794705291563
2.2972297229722973,0.1350897520371902
2.2982298229822984,0.024894429049672435
2.2992299229922994,-0.0627715681157914
2.3002300230023,-0.05004382702611159
2.301230123012301,-0.1673861033392005
2.302230223022302,-0.16812109978084805
2.3032303230323032,-0.202507974569333
2.3042304230423043,-0.1720738628382362
2.3052305230523054,-0.08929734844517845
2.3062306230623064,-0.2984177275739436
2.307230723072307,-0.3581559917402185
2.308230823082308,-0.35205314253067255
2.309230923092309,-0.31951980738257657
2.31023102310231,-0.35168209695529395
2.3112311231123113,-0.40978981100344
2.3122312231223123,-0.47628399322750925
2.3132313231323134,-0.5672369034805967
2.3142314231423144,-0.572805911340258
2.315231523152315,-0.5840355672656742
2.316231623162316,-0.6212516854105304
2.317231723172317,-0.5688548308083788
2.3182318231823182,-0.707359731901418
2.3192319231923193,-0.734986213752633
2.3202320232023204,-0.7663660279245553
2.3212321232123214,-0.6779992099053844
2.322232223222322,-0.8259008865685538
2.323232323232323,-0.7950277926403821
2.324232423242324,-0.8168836362160699
2.325232523252325,-0.8273474038859245
2.3262326232623263,-0.8301023075293886
2.3272327232723273,-0.9717754429666473
2.3282328232823284,-0.9126575064007124
2.3292329232923294,-0.9126595738512608
2.33023302330233,-0.8843790153805303
2.331233123312331,-0.8683493565004021
2.332233223322332,-0.929387915438105
2.3332333233323332,-0.9646535576632876
2.3342334233423343,-0.9999945252139825
2.3352335233523354,-1.0337939687351971
2.3362336233623364,-1.018117901439895
2.337233723372337,-1.0125178507474788
2.338233823382338,-0.9535166366556211
2.339233923392339,-1.1090200928650538
2.34023402340234,-0.9722887099645768
2.3412341234123413,-1.036173206176209
2.3422342234223423,-1.0219983323319894
2.3432343234323434,-0.9950357967090316
2.3442344234423445,-0.9553258883491924
2.345234523452345,-0.978337322651993
2.346234623462346,-1.0565158113349473
2.347234723472347,-0.9695468265119829
2.3482348234823482,-0.9695192987752144
2.3492349234923493,-0.9167776988316002
2.3502350235023504,-0.8439253326093124
2.3512351235123514,-0.848750464483296
2.352235223522352,-0.7663932668614141
2.353235323532353,-0.7834513755616695
2.354235423542354,-0.8328432535799507
2.355235523552355,-0.8382989093122316
2.3562356235623563,-0.7904178315248925
2.3572357235723573,-0.765656285239607
2.3582358235823584,-0.778357206730874
2.3592359235923595,-0.6407882114706239
2.36023602360236,-0.633224096801754
2.361236123612361,-0.6544371360666432
2.362236223622362,-0.6504347678740812
2.3632363236323632,-0.5957808399593777
2.3642364236423643,-0.48401362367772405
2.3652365236523654,-0.6214566310907381
2.3662366236623664,-0.43995449080880644
2.367236723672367,-0.43374304788448304
2.368236823682368,-0.406077500932261
2.369236923692369,-0.48341833310832905
2.37023702370237,-0.34143666855770327
2.3712371237123713,-0.34360865546853436
2.3722372237223723,-0.17993091561205948
2.3732373237323734,-0.2801520244808782
2.3742374237423745,-0.16567487651329474
2.375237523752375,-0.13496019289509187
2.376237623762376,-0.14787453833384398
2.377237723772377,-0.057322930887595075
2.3782378237823782,-0.06335471230259698
2.3792379237923793,-0.0031288182240455484
2.3802380238023804,0.09559141575027541
2.3812381238123814,0.053613065489969705
2.382238223822382,0.17083521527955883
2.383238323832383,0.27939269556987345
2.384238423842384,0.26345144144972865
2.385238523852385,0.4271758739855528
2.3862386238623863,0.5402159076066302
2.3872387238723873,0.5064879074813956
2.3882388238823884,0.566810824296135
2.3892389238923895,0.6073340764175631
2.39023902390239,0.5890703101488596
2.391239123912391,0.8226692611153014
2.392239223922392,0.790803737615198
2.3932393239323932,0.8569959505011312
2.3942394239423943,0.9421454448380835
2.3952395239523954,0.9236302763906693
2.3962396239623964,1.0035310791629994
2.397239723972397,0.960831394745303
2.398239823982398,1.0570771753399004
2.399239923992399,0.9772976585519142
2.4002400240024,1.0143395796078694
2.4012401240124013,1.0018447338232397
2.4022402240224023,1.0653291858019998
2.4032403240324034,0.9922477743871818
2.4042404240424045,0.8812435688949807
2.405240524052405,0.9068621350626481
2.406240624062406,0.9153726505365241
2.407240724072407,0.7990153693109486
2.4082408240824082,0.751851015586288
2.4092409240924093,0.7449240384900906
2.4102410241024104,0.679864341239673
2.4112411241124114,0.715809268184975
2.412241224122412,0.49302500308169916
2.413241324132413,0.42864574381234877
2.414241424142414,0.46918476139198523
2.415241524152415,0.40580339266463994
2.4162416241624163,0.1781825287019408
2.4172417241724173,0.24466798164353556
2.4182418241824184,0.07840082662866729
2.4192419241924195,0.0649226169646916
2.42024202420242,-0.030858257209576648
2.421242124212421,-0.06012286815003851
2.422242224222422,-0.18411954969162617
2.4232423242324233,-0.3299574453653719
2.4242424242424243,-0.37600242914688414
2.4252425242524254,-0.43686537310681967
2.4262426242624264,-0.4197291110593254
2.427242724272427,-0.5629363987459548
2.428242824282428,-0.6377137741230217
2.429242924292429,-0.7918978506522196
2.43024302430243,-0.7196896097830471
2.4312431243124313,-0.8144733583839521
2.4322432243224323,-0.9128081910215521
2.4332433243324334,-0.7388417365665751
2.4342434243424345,-0.8932068163708065
2.435243524352435,-0.9527637413050034
2.436243624362436,-0.9839104961701619
2.437243724372437,-1.0023604316476789
2.4382438243824383,-0.9660508127075612
2.4392439243924393,-0.96657310119563
2.4402440244024404,-0.978172419790202
2.4412441244124414,-0.9567425951144545
2.442244224422442,-0.8791438031899776
2.443244324432443,-1.022778849565573
2.444244424442444,-0.9262338544768622
2.4452445244524452,-0.9567316765096938
2.4462446244624463,-0.899866107974612
2.4472447244724473,-0.7190391041525658
2.4482448244824484,-0.7290131028292488
2.4492449244924495,-0.6397604994345528
2.45024502450245,-0.5603053277741483
2.451245124512451,-0.7280250756271527
2.452245224522452,-0.5348028527530385
2.4532453245324533,-0.4932284875025445
2.4542454245424543,-0.3571032351328151
2.4552455245524554,-0.25735960874395764
2.4562456245624564,-0.27875531474679305
2.457245724572457,-0.12641677901372705
2.458245824582458,-0.07488758534301278
2.459245924592459,-0.011211847995967441
2.4602460246024602,0.10035217411152984
2.4612461246124613,0.019696719145528722
2.4622462246224623,-0.07800753466547831
2.4632463246324634,0.0184889008594663
2.4642464246424645,0.0890802652293536
2.465246524652465,0.15665793742459022
2.466246624662466,0.06695512481941591
2.467246724672467,0.1417903026837276
2.4682468246824683,0.23430807172542395
2.4692469246924693,0.2992218027375406
2.4702470247024704,0.34589504978311714
2.4712471247124714,0.327615464820411
2.472247224722472,0.510050708688858
2.473247324732473,0.4947858988196545
2.474247424742474,0.615691574990099
2.4752475247524752,0.7354467447978673
2.4762476247624763,0.6803565155067528
2.4772477247724773,0.7804090201862219
2.4782478247824784,0.8441883453941971
2.4792479247924795,0.9231025039686047
2.48024802480248,0.9353223875564225
2.481248124812481,0.9650769179887023
2.482248224822482,0.995257931725243
2.4832483248324833,1.0650431320293043
2.4842484248424843,0.9846441332572728
2.4852485248524854,1.0808738953060224
2.4862486248624864,0.9489402049528093
2.487248724872487,0.9896164959357043
2.488248824882488,0.9855468295513523
2.489248924892489,0.9091345193024395
2.4902490249024902,0.8241653419617226
2.4912491249124913,0.8264104691519805
2.4922492249224923,0.8062272595433023
2.4932493249324934,0.6842755869488306
2.4942494249424945,0.707091483594767
2.495249524952495,0.6576117392469369
2.496249624962496,0.5490290931283849
2.497249724972497,0.5920252395125492
2.4982498249824983,0.44441065591380063
2.4992499249924993,0.37039808102100774
2.5002500250025004,0.34667362864504037
2.5012501250125014,0.2550981409221566
2.502250225022502,0.21899646097992473
2.503250325032503,0.16642340727903543
2.504250425042504,0.17393228311613695
2.5052505250525052,0.07724253566522059
2.5062506250625063,0.08361292065910844
2.5072507250725073,0.05263118892238137
2.5082508250825084,0.06233763940792603
2.5092509250925095,-0.0645865282217208
2.51025102510251,0.03948689070231934
2.511251125112511,0.05148276387261785
2.512251225122512,0.10370278044608397
2.5132513251325133,0.04812805090039106
2.5142514251425143,0.059494884536330034
2.5152515251525154,0.1111679287384639
2.5162516251625164,0.18250563970347125
2.517251725172517,0.1938879202143619
2.518251825182518,0.11027375352843016
2.519251925192519,0.27685510932234814
2.5202520252025202,0.3194021507418502
2.5212521252125213,0.38464971249272
2.5222522252225223,0.48651553708982626
2.5232523252325234,0.531200101450602
2.5242524252425245,0.6711493044358245
2.525252525252525,0.6768456364219626
2.526252625262526,0.7455094146442071
2.527252725272527,0.8111207610007145
2.5282528252825283,0.8273422636833868
2.5292529252925293,0.9147236346994183
2.5302530253025304,1.003607684100999
2.5312531253125314,0.8854203191989749
2.532253225322532,1.028152811858791
2.533253325332533,0.9948149117428292
2.534253425342534,0.9279421373001001
2.5352535253525352,0.9791637935988186
2.5362536253625363,0.9768841571766357
2.5372537253725373,0.9491544811769932
2.5382538253825384,0.9869259293470365
2.5392539253925395,0.8780046608783229
2.54025402540254,0.8890714103910995
2.541254125412541,0.8103693535602201
2.542254225422542,0.7257829768259059
2.5432543254325433,0.8112032506756877
2.5442544254425443,0.5599705401497983
2.5452545254525454,0.5412282873805869
2.5462546254625464,0.4540699678670138
2.547254725472547,0.48392035210922935
2.548254825482548,0.4317244193609351
2.549254925492549,0.2664273611699077
2.5502550255025502,0.3115972690965241
2.5512551255125513,0.1629997385630494
2.5522552255225524,0.208468609471004
2.5532553255325534,0.0951559454340345
2.5542554255425545,0.17567283123728974
2.555255525552555,0.04855651611002545
2.556255625562556,0.058399667719745835
2.557255725572557,-0.030036583152651064
2.5582558255825583,-0.010012067606501081
2.5592559255925593,0.07839456383761473
2.5602560256025604,0.007701128751865242
2.5612561256125614,0.04594380447160615
2.562256225622562,0.0975679217332192
2.563256325632563,0.04323905667651047
2.564256425642564,0.09366275253345735
2.5652565256525652,0.24182655400106123
2.5662566256625663,0.29581802677520497
2.5672567256725674,0.21389234085816272
2.5682568256825684,0.31537569336814447
2.5692569256925695,0.33076669561363253
2.57025702570257,0.38486260759250446
2.571257125712571,0.3668377432417908
2.572257225722572,0.47247488367490675
2.5732573257325733,0.6348464341006343
2.5742574257425743,0.4709389764485527
2.5752575257525754,0.5889524690518937
2.5762576257625764,0.5884367520484677
2.577257725772577,0.5371521922644328
2.578257825782578,0.6249123952064668
2.579257925792579,0.634648798974575
2.5802580258025802,0.7464016699748753
2.5812581258125813,0.7080283951788133
2.5822582258225824,0.7353802495767231
2.5832583258325834,0.8340278322333621
2.5842584258425845,0.8441562826634572
2.585258525852585,0.8055713205096504
2.586258625862586,0.8822785002640715
2.587258725872587,0.818885037024512
2.5882588258825883,0.9190518435206015
2.5892589258925893,0.9505889417146429
2.5902590259025904,0.9002816253164999
2.5912591259125914,0.9247492698799615
2.592259225922592,0.9288880898367456
2.593259325932593,0.9433744343031535
2.594259425942594,0.9451561184460411
2.5952595259525952,1.027696667358315
2.5962596259625963,0.9978968778920759
2.5972597259725974,0.9407091180601366
2.5982598259825984,1.0136862817451942
2.5992599259925995,0.9045433038401399
2.6002600260026,1.114832364912529
2.601260126012601,0.9861329604614533
2.602260226022602,0.998457880669321
2.6032603260326033,1.0332932105771548
2.6042604260426043,1.0108714883690217
2.6052605260526054,0.9535678000939504
2.6062606260626064,1.0179673920908627
2.607260726072607,0.8428101004016805
2.608260826082608,0.9293472869174314
2.609260926092609,1.0593716001118973
2.6102610261026102,0.8870485010891676
2.6112611261126113,0.9282163516204229
2.6122612261226124,0.8415092425593911
2.6132613261326134,0.8089156415066783
2.6142614261426145,0.9122015790886785
2.615261526152615,0.8484436421699016
2.616261626162616,0.7688029447935948
2.617261726172617,0.7581243219324164
2.6182618261826183,0.8715960768871844
2.6192619261926193,0.7275002582490243
2.6202620262026204,0.595151745508472
2.6212621262126214,0.607219267116889
2.622262226222622,0.6092666474327268
2.623262326232623,0.5607403952525571
2.624262426242624,0.5796569313558833
2.6252625262526252,0.519509451499877
2.6262626262626263,0.40185016353101966
2.6272627262726274,0.4078931434785809
2.6282628262826284,0.5264325416960091
2.6292629262926295,0.3790296896362023
2.63026302630263,0.35164717131002177
2.631263126312631,0.3101889549899597
2.632263226322632,0.17333458512438332
2.6332633263326333,0.31324987997049036
2.6342634263426343,0.2724227358441367
2.6352635263526354,0.19080624139255883
2.6362636263626364,0.10287407147335845
2.637263726372637,-0.006721051858199309
2.638263826382638,-0.059516275591271414
2.639263926392639,0.014784523433090311
2.6402640264026402,0.10742553062253712
2.6412641264126413,-0.0541388401429488
2.6422642264226424,-0.08187430551376161
2.6432643264326434,-0.16367627260861345
2.6442644264426445,-0.18476784744311298
2.645264526452645,-0.2508319909169703
2.646264626462646,-0.2174360906225676
2.647264726472647,-0.33242392773659396
2.6482648264826483,-0.37312232247287425
2.6492649264926493,-0.3587082803797664
2.6502650265026504,-0.33407395002827794
2.6512651265126514,-0.41120406820842187
2.652265226522652,-0.5915535191091478
2.653265326532653,-0.5129433802390242
2.654265426542654,-0.43006093265831224
2.6552655265526552,-0.6285291829148653
2.6562656265626563,-0.5219941062457769
2.6572657265726574,-0.6708227617373568
2.6582658265826584,-0.7621143350070744
2.6592659265926595,-0.7782495954227882
2.66026602660266,-0.7199510220382556
2.661266126612661,-0.7332192688274713
2.662266226622662,-0.7963695944315072
2.6632663266326633,-0.7335750987205134
2.6642664266426643,-0.8323935280630993
2.6652665266526654,-0.8391030089204679
2.6662666266626665,-0.8697656501244494
2.667266726672667,-0.8492738682186296
2.668266826682668,-0.9297871546581817
2.669266926692669,-0.888572363066081
2.6702670267026702,-0.9486142017374052
2.6712671267126713,-0.9663782821288694
2.6722672267226724,-0.9736319377227332
2.6732673267326734,-1.0361450283035083
2.6742674267426745,-0.9472223541883336
2.675267526752675,-0.94090401253356
2.676267626762676,-0.9718735545821546
2.677267726772677,-0.9862027631930346
2.6782678267826783,-1.023638667516441
2.6792679267926793,-1.041657137972409
2.6802680268026804,-0.9291100197981671
2.6812681268126815,-1.0370239614707586
2.682268226822682,-0.9480022912217437
2.683268326832683,-0.9411547323685127
2.684268426842684,-0.9828377851046026
2.6852685268526852,-0.9552394329776704
2.6862686268626863,-0.924446475420773
2.6872687268726874,-0.9632745950332977
2.6882688268826884,-0.9159544625336213
2.6892689268926895,-0.9352252878813758
2.69026902690269,-0.8970182770824521
2.691269126912691,-0.9229008627645378
2.692269226922692,-0.8658046845065934
2.6932693269326933,-0.8290942267995752
2.6942694269426943,-0.8264110580108978
2.6952695269526954,-0.8011516679975622
2.6962696269626965,-0.8201526821637897
2.697269726972697,-0.7669920895329309
2.698269826982698,-0.6846547119893843
2.699269926992699,-0.6821974620090157
2.7002700270027002,-0.7048238782392661
2.7012701270127013,-0.604743679695426
2.7022702270227024,-0.6126776345961142
2.7032703270327034,-0.5847390064298686
2.7042704270427045,-0.5680725952693214
2.705270527052705,-0.6285626484243755
2.706270627062706,-0.5019509849069292
2.707270727072707,-0.5339984117753019
2.7082708270827083,-0.4076492590133101
2.7092709270927093,-0.3562004446119723
2.7102710271027104,-0.33208034207615933
2.7112711271127115,-0.2858631902121189
2.712271227122712,-0.34134368457699643
2.713271327132713,-0.3244146443633525
2.714271427142714,-0.1442667310158824
2.7152715271527152,-0.07030570353334872
2.7162716271627163,-0.061995175730966745
2.7172717271727174,-0.11056069596509249
2.7182718271827184,-0.020741077930407047
2.7192719271927195,-0.010691029324233811
2.72027202720272,-0.04942934847947854
2.721272127212721,0.04436022206643808
2.722272227222722,0.17546146731643897
2.7232723272327233,0.1981140232428994
2.7242724272427243,0.3037822245173811
2.7252725272527254,0.36524953367347773
2.7262726272627265,0.4141334057242736
2.727272727272727,0.610822929618879
2.728272827282728,0.5564649692903233
2.729272927292729,0.6604964484721744
2.7302730273027302,0.7082901476489631
2.7312731273127313,0.8114835251289249
2.7322732273227324,0.8764340582581894
2.7332733273327334,0.8824928194946582
2.7342734273427345,0.8582020386398168
2.735273527352735,0.8986931413852024
2.736273627362736,0.8955449678803556
2.737273727372737,0.9338634495195032
2.7382738273827383,1.0576959892173354
2.7392739273927393,0.9983522970918188
2.7402740274027404,0.9882970884847937
2.7412741274127415,0.9990539837069781
2.742274227422742,1.003617773969228
2.743274327432743,0.8923494688904388
2.744274427442744,0.8415072849293227
2.7452745274527453,1.0601795618787155
2.7462746274627463,0.9363701076012373
2.7472747274727474,0.8691484929861903
2.7482748274827484,0.8303018784987997
2.7492749274927495,0.6715050592901062
2.75027502750275,0.691393559515983
2.751275127512751,0.6744882449068903
2.752275227522752,0.5118741204758835
2.7532753275327533,0.5450265602423965
2.7542754275427543,0.4917461492791869
2.7552755275527554,0.37335282937218717
2.7562756275627565,0.25432972735699677
2.757275727572757,0.1950168719241512
2.758275827582758,0.18454817264090972
2.759275927592759,0.0450884912610809
2.7602760276027603,0.06712235250985543
2.7612761276127613,-0.1251443013175511
2.7622762276227624,-0.23447739920882277
2.7632763276327634,-0.31477595261034763
2.7642764276427645,-0.42627576852961974
2.765276527652765,-0.4069651009667539
2.766276627662766,-0.5701781981156959
2.7672767276727672,-0.5571174515242036
2.7682768276827683,-0.5751389211141699
2.7692769276927693,-0.7614036072405611
2.7702770277027704,-0.7074471110634639
2.7712771277127715,-0.8043475461535998
2.772277227722772,-0.8584107115205475
2.773277327732773,-0.917123435633788
2.774277427742774,-0.8635912622754993
2.7752775277527753,-0.9682498750209362
2.7762776277627763,-0.9775450636400316
2.7772777277727774,-0.8999987265467182
2.7782778277827784,-1.044716216084437
2.7792779277927795,-1.0116058728011381
2.78027802780278,-1.0388217035602783
2.781278127812781,-1.0309579771231319
2.7822782278227822,-1.0034780432264125
2.7832783278327833,-0.9387416883869706
2.7842784278427843,-0.937712417628963
2.7852785278527854,-0.9704576588727256
2.7862786278627865,-0.9928320603715005
2.787278727872787,-0.8519552285557144
2.788278827882788,-0.8020626333687239
2.789278927892789,-0.6689680394106835
2.7902790279027903,-0.629174405287706
2.7912791279127913,-0.5517670614804725
2.7922792279227924,-0.5819138719201876
2.7932793279327934,-0.47740415630964894
2.7942794279427945,-0.3772355655499766
2.795279527952795,-0.26978083252967466
2.796279627962796,-0.17414596185431597
2.7972797279727972,-0.1253624079021055
2.7982798279827983,-0.03913497814312923
2.7992799279927993,-0.04949376743143645
2.8002800280028004,-1.7958200333428777e-05
2.8012801280128015,0.09044475505833206
2.802280228022802,-0.0996834776997814
2.803280328032803,0.0498180108655437
2.804280428042804,0.11484135821749865
2.8052805280528053,0.0647986383459735
2.8062806280628063,0.18687849995781197
2.8072807280728074,0.20503904914325632
2.8082808280828084,0.2620143280107673
2.8092809280928095,0.42290963449039265
2.81028102810281,0.3065181141974071
2.811281128112811,0.37364840065632204
2.8122812281228122,0.4306048781221754
2.8132813281328133,0.4841667050855103
2.8142814281428143,0.5744184815630724
2.8152815281528154,0.6600254707465674
2.8162816281628165,0.7707691452906243
2.817281728172817,0.7410331169224281
2.818281828182818,0.7754624883167676
2.819281928192819,0.9169259580578585
2.8202820282028203,0.9657048569952841
2.8212821282128213,0.8787826613130298
2.8222822282228224,0.9135031977638715
2.8232823282328234,0.9411304152130193
2.8242824282428245,0.9701099450753189
2.825282528252825,0.962341504966398
2.826282628262826,1.0226371659960611
2.8272827282728272,1.0030359206350954
2.8282828282828283,0.8710667221279385
2.8292829282928293,0.9642484120642635
2.8302830283028304,0.8719932552711402
2.8312831283128315,0.923565503312846
2.832283228322832,0.7277382905078167
2.833283328332833,0.6835129845961615
2.834283428342834,0.7475522736539141
2.8352835283528353,0.6318619430773015
2.8362836283628363,0.5564016280636194
2.8372837283728374,0.45322034420101276
2.8382838283828384,0.4749290858918862
2.8392839283928395,0.2959436702059548
2.84028402840284,0.27783608124910975
2.841284128412841,0.2732265261907465
2.8422842284228422,0.2501990926056397
2.8432843284328433,0.17649741627618623
2.8442844284428443,0.07337971787090941
2.8452845284528454,0.14785354661646954
2.8462846284628465,0.08329249841932862
2.847284728472847,-0.009458082952932358
2.848284828482848,0.050776522105029365
2.849284928492849,0.019086423031189445
2.8502850285028503,-0.034390002924426635
2.8512851285128513,0.04462979471649343
2.8522852285228524,0.08880665212042754
2.8532853285328534,0.03121052610009399
2.8542854285428545,0.0376604442426092
2.855285528552855,0.15017926234722537
2.856285628562856,0.08410764687332448
2.8572857285728572,0.13178970145773988
2.8582858285828583,0.35910540637266264
2.8592859285928593,0.23918987795007302
2.8602860286028604,0.36146237775267165
2.8612861286128615,0.4982675715002026
2.862286228622862,0.4890808552391598
2.863286328632863,0.5468218401679149
2.864286428642864,0.6085551130695283
2.8652865286528653,0.754705371330487
2.8662866286628663,0.7981822748936065
2.8672867286728674,0.7527818443740208
2.8682868286828684,0.8809970063418344
2.8692869286928695,0.7645598975167763
2.87028702870287,0.97539433538488
2.871287128712871,0.9594151798729993
2.8722872287228722,0.9789894779214078
2.8732873287328733,0.9415553866351558
2.8742874287428744,0.9002975848091326
2.8752875287528754,0.984829700629634
2.8762876287628765,0.9822627231640602
2.877287728772877,1.0007073010285037
2.878287828782878,0.9313319770154764
2.879287928792879,0.9277907216717817
2.8802880288028803,0.8608220604835272
2.8812881288128813,0.7437801309972447
2.8822882288228824,0.8695241889055205
2.8832883288328834,0.8018644965420444
2.8842884288428845,0.6925699911776707
2.885288528852885,0.5615021935376209
2.886288628862886,0.5319460862089194
2.8872887288728872,0.4337958418791932
2.8882888288828883,0.4194980705645397
2.8892889288928894,0.4316729216763542
2.8902890289028904,0.3290434270383605
2.8912891289128915,0.17067819507916915
2.892289228922892,0.2203382916933787
2.893289328932893,0.13506437492552179
2.894289428942894,0.09277006630304907
2.8952895289528953,0.07755712102881585
2.8962896289628963,-0.02626035893262358
2.8972897289728974,0.021918866739834328
2.8982898289828984,0.10522234617903477
2.8992899289928995,-0.027538212841877713
2.9002900290029,-0.07183997826448107
2.901290129012901,0.10847828989369429
2.9022902290229022,0.09398890634691379
2.9032903290329033,0.10826999112966125
2.9042904290429044,0.16828647514235437
2.9052905290529054,0.12556628916504603
2.9062906290629065,0.29754871485008605
2.907290729072907,0.2923405037098706
2.908290829082908,0.2482462835868522
2.909290929092909,0.352636571969044
2.9102910291029103,0.32185566944553956
2.9112911291129113,0.3441154206797754
2.9122912291229124,0.506396350231694
2.9132913291329134,0.503553835172815
2.9142914291429145,0.5407347421063157
2.915291529152915,0.4616351103884269
2.916291629162916,0.6034845824830438
2.9172917291729172,0.6271030460949085
2.9182918291829183,0.718821434233727
2.9192919291929194,0.6857251229243457
2.9202920292029204,0.7104586597526288
2.9212921292129215,0.8430461955499247
2.922292229222922,0.7825915127873193
2.923292329232923,0.8527812082501194
2.924292429242924,0.8337596690244689
2.9252925292529253,0.8250700760891165
2.9262926292629263,0.8084918135320438
2.9272927292729274,0.8523910238210527
2.9282928292829284,0.9166669098226895
2.9292929292929295,0.8912239747614912
2.93029302930293,0.9252268739578101
2.931293129312931,0.9071646472272831
2.9322932293229322,0.9552793462907556
2.9332933293329333,0.9601280114439171
2.9342934293429344,1.0248674481702005
2.9352935293529354,0.9925595089382873
2.9362936293629365,0.9405476249434614
2.937293729372937,0.9467257351466303
2.938293829382938,0.9800035734078302
2.939293929392939,0.9726829914694406
2.9402940294029403,1.0013837637399567
2.9412941294129413,1.014401886595597
2.9422942294229424,0.9685172684200498
2.9432943294329434,0.9406324435812673
2.9442944294429445,1.0276831987548172
2.945294529452945,0.9261120714987143
2.946294629462946,0.972271752080964
2.9472947294729472,0.987547971733886
2.9482948294829483,1.0536974070947536
2.9492949294929494,1.0315312527165998
2.9502950295029504,0.8729787461518287
2.9512951295129515,0.9201567658760731
2.952295229522952,0.8499643736471908
2.953295329532953,0.8220277390506436
2.954295429542954,0.8794047999711846
2.9552955295529553,0.9247624684918055
2.9562956295629563,0.788530965301107
2.9572957295729574,0.7928013943108132
2.9582958295829584,0.7643607114245073
2.9592959295929595,0.7118324619399283
2.96029602960296,0.7155532225459341
2.961296129612961,0.6865027251276756
2.9622962296229622,0.7220802910367952
2.9632963296329633,0.6370514130638678
2.9642964296429644,0.5034715572817786
2.9652965296529654,0.5138158156445011
2.9662966296629665,0.5184829184256265
2.967296729672967,0.4555342687247763
2.968296829682968,0.27863988133702045
2.969296929692969,0.3701464064675172
2.9702970297029703,0.42724449765917055
2.9712971297129713,0.30156564413744213
2.9722972297229724,0.3069126029964233
2.9732973297329734,0.32222356124711
2.9742974297429745,0.15487636103282498
2.975297529752975,0.21987542326080006
2.976297629762976,0.08458063408477437
2.9772977297729772,0.09536214544699097
2.9782978297829783,0.10753087045736219
2.9792979297929794,0.0033125487546369313
2.9802980298029804,0.05993598232137803
2.9812981298129815,-0.003456852397217554
2.982298229822982,-0.12107679918798203
2.983298329832983,-0.14053953310946232
2.984298429842984,-0.1116439714178502
2.9852985298529853,-0.2248503496042841
2.9862986298629863,-0.31523816343302724
2.9872987298729874,-0.30699577304995046
2.9882988298829884,-0.32053533436678294
2.9892989298929895,-0.3827518332247038
2.99029902990299,-0.447815665002802
2.991299129912991,-0.4911922479782138
2.9922992299229922,-0.44027366759231146
2.9932993299329933,-0.4821039846886189
2.9942994299429944,-0.6264658112508273
2.9952995299529954,-0.6644437530806403
2.9962996299629965,-0.618744131722669
2.997299729972997,-0.6680763618180809
2.998299829982998,-0.5832724010775279
2.999299929992999,-0.6901768921164193
3.0003000300030003,-0.662670313179002
3.0013001300130013,-0.797577507692453
3.0023002300230024,-0.8145886317712141
3.0033003300330035,-0.7680095362591405
3.0043004300430045,-0.8207072739159074
3.005300530053005,-0.892867071813381
3.006300630063006,-0.8621672107529174
3.0073007300730072,-0.8793811107086895
3.0083008300830083,-0.8939811874823268
3.0093009300930094,-0.883564517554707
3.0103010301030104,-0.909492183640853
3.0113011301130115,-0.9321664141304935
3.012301230123012,-0.8834110788257133
3.013301330133013,-0.996912377068895
3.014301430143014,-0.9483527467006323
3.0153015301530153,-1.0337446057772706
3.0163016301630163,-0.9756374459613412
3.0173017301730174,-1.0102136790409981
3.0183018301830185,-0.9960046188255635
3.0193019301930195,-1.0281887899310895
3.02030203020302,-1.0485887223697543
3.021302130213021,-1.0906737495981749
3.0223022302230222,-0.9190830988433633
3.0233023302330233,-0.9943023551705653
3.0243024302430244,-0.9789059766074304
3.0253025302530254,-0.9916678201750165
3.0263026302630265,-0.941899401834016
3.027302730273027,-0.9728842475403986
3.028302830283028,-0.9521838477158651
3.029302930293029,-0.9522909375261623
3.0303030303030303,-0.9260675384505194
3.0313031303130313,-0.9751300063092367
3.0323032303230324,-0.9247859628655483
3.0333033303330335,-0.7363833543546863
3.0343034303430345,-0.8421975536528938
3.035303530353035,-0.8605016216076478
3.036303630363036,-0.7929021744690349
3.0373037303730372,-0.7424851974970778
3.0383038303830383,-0.8382162988625494
3.0393039303930394,-0.6655795410748616
3.0403040304030404,-0.6927452541912167
3.0413041304130415,-0.6575002379550346
3.042304230423042,-0.6922639752668424
3.043304330433043,-0.5038299796858227
3.044304430443044,-0.5479667534288928
3.0453045304530453,-0.5813059156546041
3.0463046304630463,-0.47074724854177824
3.0473047304730474,-0.38947796748365043
3.0483048304830485,-0.4569567707964634
3.0493049304930495,-0.40840965141926566
3.05030503050305,-0.3663471366881056
3.051305130513051,-0.30798264955852916
3.0523052305230522,-0.3218632637807062
3.0533053305330533,-0.22766533921778206
3.0543054305430544,-0.17649994134277763
3.0553055305530554,-0.14393145949350267
3.0563056305630565,-0.14616169327855547
3.057305730573057,-0.01608658871889193
3.058305830583058,-0.036962556693375434
3.059305930593059,0.001698674689392218
3.0603060306030603,0.04655479912513766
3.0613061306130613,0.013827106708360945
3.0623062306230624,0.18891111338051964
3.0633063306330635,0.20389549685217595
3.0643064306430645,0.29070646177634873
3.065306530653065,0.396480959787386
3.066306630663066,0.499316177633507
3.0673067306730672,0.5118580316330412
3.0683068306830683,0.6065835441771946
3.0693069306930694,0.7027816763449193
3.0703070307030704,0.7459955467803033
3.0713071307130715,0.7997621479297216
3.072307230723072,0.8587961771785669
3.073307330733073,0.8843284411469559
3.074307430743074,0.9293849585508799
3.0753075307530753,0.9262786011532418
3.0763076307630763,1.0437384981589863
3.0773077307730774,1.0022615955817522
3.0783078307830785,0.9587931517738092
3.0793079307930795,1.0440306152559022
3.08030803080308,0.970048540158693
3.081308130813081,0.9237828900202242
3.0823082308230823,1.042717454331786
3.0833083308330833,0.9501053461077137
3.0843084308430844,0.9188072641048095
3.0853085308530854,0.9186269421702
3.0863086308630865,0.875222316377006
3.0873087308730875,0.8236034569108076
3.088308830883088,0.9592061620851604
3.0893089308930892,0.7163527534336603
3.0903090309030903,0.721252172284759
3.0913091309130913,0.5798544336215464
3.0923092309230924,0.5307571046844419
3.0933093309330935,0.4231813260780328
3.0943094309430945,0.430214572443597
3.095309530953095,0.39365499439979856
3.096309630963096,0.26434755278902716
3.0973097309730973,0.24588771231989945
3.0983098309830983,0.15884580640339438
3.0993099309930994,-0.0039024565109061563
3.1003100310031004,0.03682127220428624
3.1013101310131015,-0.0615504691224812
3.1023102310231025,-0.26176673131955014
3.103310331033103,-0.20738572784087547
3.1043104310431042,-0.3899360618114852
3.1053105310531053,-0.4857917781601346
3.1063106310631063,-0.4622640053292326
3.1073107310731074,-0.5671642466220492
3.1083108310831085,-0.6249569909642343
3.1093109310931095,-0.7455017517440724
3.11031103110311,-0.6899003539259443
3.111311131113111,-0.7375949206554959
3.1123112311231123,-0.8221534192420816
3.1133113311331133,-0.9115446550449388
3.1143114311431144,-0.8415203198818764
3.1153115311531154,-0.7868156473327825
3.1163116311631165,-0.9206690671100206
3.1173117311731176,-1.035735815277395
3.118311831183118,-0.9901935446863022
3.1193119311931192,-1.060342658472842
3.1203120312031203,-0.991686969406244
3.1213121312131213,-0.9521982236120553
3.1223122312231224,-0.9207342054020243
3.1233123312331235,-0.9631717721938498
3.1243124312431245,-0.856613436234002
3.125312531253125,-0.964687463662472
3.126312631263126,-0.879121770594531
3.1273127312731273,-0.8302268179362602
3.1283128312831283,-0.8029965237525194
3.1293129312931294,-0.6576422139764156
3.1303130313031304,-0.6628713458349289
